Time	EMG	Muscle Force
0	0	0.278847
0.001	0	0.278847
0.002	0	0.278847
0.003	0	0.278847
0.004	0	0.278847
0.005	0	0.278847
0.006	0	0.278473
0.007	0	0.278473
0.008	0	0.278473
0.009	0	0.278099
0.01	0	0.278099
0.011	0	0.278099
0.012	0	0.277726
0.013	0	0.277726
0.014	0	0.277726
0.015	0	0.277352
0.016	0	0.277352
0.017	0	0.277352
0.018	0	0.276978
0.019	0	0.276978
0.02	0	0.276978
0.021	0	0.276978
0.022	0	0.276605
0.023	0	0.276605
0.024	0	0.276605
0.025	0	0.276605
0.026	0	0.276605
0.027	0	0.27623
0.028	0	0.27623
0.029	0	0.27623
0.03	0	0.27623
0.031	0	0.27623
0.032	0	0.27623
0.033	0	0.27623
0.034	0	0.275858
0.035	0	0.275858
0.036	0	0.275858
0.037	0	0.275858
0.038	0	0.275858
0.039	0	0.275858
0.04	0	0.275858
0.041	0	0.275858
0.042	0	0.275858
0.043	0	0.275858
0.044	0	0.275858
0.045	0	0.275858
0.046	0	0.275483
0.047	0	0.275483
0.048	0	0.275483
0.049	0	0.275483
0.05	0	0.275483
0.051	-0.176599	0.275483
0.052	-0.24273	0.275483
0.053	0.0639955	0.275483
0.054	0.199973	0.275483
0.055	0.107644	0.275483
0.056	-0.0489449	0.275483
0.057	-0.168424	0.275483
0.058	-0.117665	0.275483
0.059	0.0925369	0.275483
0.06	0.27004	0.275483
0.061	0.0112332	0.275483
0.062	-0.22119	0.275483
0.063	-0.162488	0.275483
0.064	0.0408027	0.275483
0.065	0.172086	0.275483
0.066	0.156568	0.275483
0.067	-0.00323638	0.275483
0.068	-0.242006	0.275483
0.069	-0.154236	0.275483
0.07	0.13154	0.275483
0.071	0.183944	0.275483
0.072	0.0520412	0.275483
0.073	-0.105552	0.275483
0.074	-0.167649	0.275483
0.075	-0.0493664	0.275483
0.076	0.195481	0.275483
0.077	0.225708	0.275483
0.078	-0.113173	0.275483
0.079	-0.249745	0.275483
0.08	-0.0962374	0.275483
0.081	0.103308	0.275483
0.082	0.200766	0.275483
0.083	0.122442	0.275483
0.084	-0.0879926	0.275483
0.085	-0.273498	0.275483
0.086	-0.0464649	0.275483
0.087	0.167714	0.275483
0.088	0.143811	0.275483
0.089	-0.00226883	0.275483
0.09	-0.128296	0.275483
0.091	-0.129049	0.275483
0.092	0.0169066	0.275483
0.093	0.241297	0.275483
0.094	0.112742	0.275483
0.095	-0.182488	0.275483
0.096	-0.214149	0.275483
0.097	-0.0177495	0.275483
0.098	0.143079	0.275483
0.099	0.184477	0.275483
0.1	0.0637064	0.275483
0.101	-0.176217	0.275483
0.102	-0.236388	0.275483
0.103	0.0675366	0.275483
0.104	0.191923	0.275483
0.105	0.091	0.275483
0.106	-0.0603591	0.275483
0.107	-0.1583	0.275483
0.108	-0.100175	0.275483
0.109	0.105912	0.275483
0.11	0.267707	0.275483
0.111	-0.00291541	0.275483
0.112	-0.227139	0.275483
0.113	-0.161151	0.275483
0.114	0.0420332	0.275483
0.115	0.170169	0.275483
0.116	0.158241	0.275483
0.117	-0.00462308	0.275483
0.118	-0.243627	0.275483
0.119	-0.142763	0.275483
0.12	0.144787	0.275483
0.121	0.171255	0.275483
0.122	0.0327338	0.275483
0.123	-0.101291	0.275483
0.124	-0.152885	0.275483
0.125	-0.0503711	0.275483
0.126	0.185354	0.275483
0.127	0.217321	0.275483
0.128	-0.106154	0.275483
0.129	-0.23596	0.275483
0.13	-0.084427	0.275483
0.131	0.0968559	0.275483
0.132	0.183095	0.275483
0.133	0.114461	0.275483
0.134	-0.0869574	0.275483
0.135	-0.27328	0.275483
0.136	-0.0326042	0.275483
0.137	0.179313	0.275483
0.138	0.138182	0.275483
0.139	-0.00486246	0.275483
0.14	-0.138638	0.275483
0.141	-0.13515	0.275483
0.142	0.02846	0.275483
0.143	0.243742	0.275483
0.144	0.105308	0.275483
0.145	-0.18086	0.275483
0.146	-0.213112	0.275483
0.147	-0.0132512	0.275483
0.148	0.145281	0.275483
0.149	0.181004	0.275483
0.15	0.0618434	0.275483
0.151	-0.183109	0.275483
0.152	-0.233937	0.275483
0.153	0.0725768	0.275483
0.154	0.195123	0.275483
0.155	0.0939074	0.275483
0.156	-0.0640953	0.275483
0.157	-0.167774	0.275483
0.158	-0.101961	0.275483
0.159	0.112547	0.275483
0.16	0.273883	0.275483
0.161	-0.00190258	0.275483
0.162	-0.231709	0.275483
0.163	-0.162666	0.275483
0.164	0.0416513	0.275483
0.165	0.170861	0.275483
0.166	0.158186	0.275483
0.167	-0.00511857	0.275483
0.168	-0.24829	0.275483
0.169	-0.138167	0.275483
0.17	0.143941	0.275483
0.171	0.180573	0.275483
0.172	0.0391446	0.275483
0.173	-0.11678	0.275483
0.174	-0.169429	0.275483
0.175	-0.0415615	0.275483
0.176	0.200508	0.275483
0.177	0.216505	0.275483
0.178	-0.10642	0.275483
0.179	-0.237314	0.275483
0.18	-0.0865523	0.275483
0.181	0.0926922	0.275483
0.182	0.182656	0.275483
0.183	0.114617	0.275483
0.184	-0.0937804	0.275858
0.185	-0.268201	0.275483
0.186	-0.0196631	0.275858
0.187	0.183256	0.275858
0.188	0.134251	0.275858
0.189	-0.014531	0.275483
0.19	-0.14386	0.275858
0.191	-0.134798	0.275858
0.192	0.0285483	0.275483
0.193	0.251882	0.275858
0.194	0.103822	0.275483
0.195	-0.182235	0.275483
0.196	-0.20795	0.275858
0.197	-0.00943042	0.275858
0.198	0.142858	0.275483
0.199	0.175612	0.275858
0.2	0.0496452	0.275858
0.201	-0.184787	0.275483
0.202	-0.222418	0.275483
0.203	0.0837932	0.275858
0.204	0.196128	0.275483
0.205	0.0852502	0.275858
0.206	-0.0628392	0.275858
0.207	-0.164947	0.275858
0.208	-0.112782	0.275483
0.209	0.108306	0.275858
0.21	0.274746	0.275483
0.211	-0.00499896	0.275858
0.212	-0.223377	0.275483
0.213	-0.145965	0.275858
0.214	0.0497144	0.275858
0.215	0.166426	0.275858
0.216	0.146981	0.275858
0.217	-0.0274976	0.275483
0.218	-0.260831	0.275858
0.219	-0.125321	0.275858
0.22	0.164014	0.275858
0.221	0.192668	0.275858
0.222	0.0357422	0.275483
0.223	-0.125086	0.275483
0.224	-0.171012	0.275858
0.225	-0.0428598	0.275483
0.226	0.20372	0.275483
0.227	0.205028	0.275483
0.228	-0.116665	0.275483
0.229	-0.231235	0.275483
0.23	-0.0707563	0.275483
0.231	0.101542	0.275483
0.232	0.18292	0.275483
0.233	0.107956	0.275483
0.234	-0.109515	0.275483
0.235	-0.272407	0.275483
0.236	-0.0101345	0.275483
0.237	0.189707	0.275483
0.238	0.138572	0.275483
0.239	-0.0164331	0.275483
0.24	-0.150479	0.275483
0.241	-0.139215	0.275483
0.242	0.0315646	0.275483
0.243	0.260374	0.275483
0.244	0.0978603	0.275483
0.245	-0.186371	0.275483
0.246	-0.202627	0.275483
0.247	-0.00695506	0.275483
0.248	0.139312	0.275483
0.249	0.175118	0.275483
0.25	0.0506887	0.275483
0.251	-0.19265	0.275483
0.252	-0.215637	0.275483
0.253	0.0951733	0.275483
0.254	0.199944	0.275483
0.255	0.0725634	0.275483
0.256	-0.0911933	0.275483
0.257	-0.168505	0.275483
0.258	-0.0817777	0.275483
0.259	0.134569	0.275858
0.26	0.275341	0.275858
0.261	-0.019604	0.275858
0.262	-0.241903	0.275483
0.263	-0.160561	0.275858
0.264	0.036288	0.275858
0.265	0.178353	0.275483
0.266	0.179342	0.275858
0.267	-0.0172436	0.275858
0.268	-0.266396	0.275858
0.269	-0.116607	0.275483
0.27	0.1489	0.275858
0.271	0.162431	0.275858
0.272	0.02684	0.275483
0.273	-0.117067	0.275483
0.274	-0.155767	0.275483
0.275	-0.024566	0.275483
0.276	0.217044	0.275483
0.277	0.19675	0.275858
0.278	-0.127244	0.275858
0.279	-0.238389	0.275858
0.28	-0.0803919	0.275858
0.281	0.100696	0.275483
0.282	0.1921	0.275483
0.283	0.121635	0.275858
0.284	-0.113607	0.275858
0.285	-0.28059	0.275858
0.286	-0.0134367	0.275858
0.287	0.184946	0.275858
0.288	0.130067	0.275858
0.289	-0.0190363	0.275858
0.29	-0.135375	0.275858
0.291	-0.111786	0.275858
0.292	0.0581233	0.275858
0.293	0.266057	0.275858
0.294	0.0756053	0.275858
0.295	-0.226715	0.275858
0.296	-0.251483	0.275483
0.297	-0.04908	0.275858
0.298	0.131751	0.275858
0.299	0.227348	0.275858
0.3	0.183628	0.275858
0.301	-0.0160886	0.275858
0.302	-0.261463	0.275858
0.303	-0.255343	0.275858
0.304	0.0843057	0.275858
0.305	0.205804	0.275858
0.306	0.097638	0.275858
0.307	-0.0609205	0.275858
0.308	-0.15343	0.275858
0.309	-0.0811863	0.275858
0.31	0.137542	0.275858
0.311	0.258327	0.275858
0.312	-0.0415332	0.275858
0.313	-0.245571	0.275858
0.314	-0.145765	0.275858
0.315	0.0613185	0.275858
0.316	0.177692	0.275858
0.317	0.143423	0.275858
0.318	-0.0323891	0.275858
0.319	-0.247563	0.275858
0.32	-0.0990242	0.275858
0.321	0.152379	0.275858
0.322	0.158837	0.275858
0.323	0.0159462	0.275483
0.324	-0.110668	0.275858
0.325	-0.141783	0.275858
0.326	-0.0277835	0.275858
0.327	0.202271	0.275483
0.328	0.183354	0.275858
0.329	-0.135009	0.275483
0.33	-0.230108	0.275483
0.331	-0.060895	0.275858
0.332	0.109446	0.275483
0.333	0.19127	0.275483
0.334	0.105476	0.275483
0.335	-0.117418	0.275483
0.336	-0.26756	0.275483
0.337	-0.00433157	0.275483
0.338	0.179901	0.275483
0.339	0.122307	0.275858
0.34	-0.0196903	0.275483
0.341	-0.145683	0.275483
0.342	-0.122079	0.275483
0.343	0.0546856	0.275483
0.344	0.260254	0.275483
0.345	0.0723529	0.275483
0.346	-0.204501	0.275483
0.347	-0.200503	0.275483
0.348	0.00444831	0.275483
0.349	0.151229	0.275483
0.35	0.178689	0.275483
0.351	0.0402507	0.275483
0.352	-0.206405	0.275483
0.353	-0.205647	0.275483
0.354	0.0998555	0.275483
0.355	0.193044	0.275483
0.356	0.0769957	0.275483
0.357	-0.0797414	0.275483
0.358	-0.163921	0.275483
0.359	-0.0859078	0.275483
0.36	0.129185	0.275483
0.361	0.251173	0.275483
0.362	-0.0354716	0.275483
0.363	-0.225141	0.275483
0.364	-0.131348	0.275483
0.365	0.0647291	0.275483
0.366	0.175916	0.275483
0.367	0.13816	0.275483
0.368	-0.0439383	0.275483
0.369	-0.263629	0.275483
0.37	-0.0949243	0.275483
0.371	0.165399	0.275483
0.372	0.170186	0.275483
0.373	0.020733	0.275483
0.374	-0.122641	0.275483
0.375	-0.160155	0.275483
0.376	-0.0299582	0.275483
0.377	0.22162	0.275483
0.378	0.188306	0.275483
0.379	-0.137176	0.275483
0.38	-0.232531	0.275483
0.381	-0.0633695	0.275483
0.382	0.11017	0.275483
0.383	0.18737	0.275483
0.384	0.103347	0.275483
0.385	-0.120247	0.275483
0.386	-0.266211	0.275483
0.387	0.00344329	0.275483
0.388	0.187401	0.275483
0.389	0.122876	0.275483
0.39	-0.0279598	0.275483
0.391	-0.150234	0.275483
0.392	-0.123845	0.275858
0.393	0.0564981	0.275483
0.394	0.268409	0.275483
0.395	0.0636459	0.275483
0.396	-0.206698	0.275483
0.397	-0.195201	0.275483
0.398	0.00956444	0.275483
0.399	0.15229	0.275858
0.4	0.171775	0.275483
0.401	0.0349316	0.275483
0.402	-0.20624	0.275483
0.403	-0.193138	0.275483
0.404	0.107854	0.275483
0.405	0.189178	0.275483
0.406	0.0633981	0.275483
0.407	-0.0890575	0.275483
0.408	-0.166758	0.275483
0.409	-0.0846873	0.275483
0.41	0.149368	0.275483
0.411	0.263981	0.275483
0.412	-0.0427425	0.275483
0.413	-0.234009	0.275483
0.414	-0.135325	0.275483
0.415	0.0593062	0.275858
0.416	0.171546	0.275483
0.417	0.14215	0.275483
0.418	-0.0364422	0.275483
0.419	-0.262315	0.275483
0.42	-0.0919502	0.275483
0.421	0.167996	0.275483
0.422	0.169509	0.275483
0.423	0.0182363	0.275483
0.424	-0.138105	0.275483
0.425	-0.174418	0.275483
0.426	-0.0160919	0.275858
0.427	0.246377	0.275483
0.428	0.189495	0.275483
0.429	-0.151324	0.275483
0.43	-0.237717	0.275483
0.431	-0.049139	0.275858
0.432	0.115626	0.275858
0.433	0.175163	0.275858
0.434	0.0861171	0.275858
0.435	-0.129524	0.275483
0.436	-0.252651	0.275483
0.437	0.0312209	0.275858
0.438	0.192947	0.275858
0.439	0.111794	0.275483
0.44	-0.0403116	0.275858
0.441	-0.155915	0.275858
0.442	-0.120156	0.275858
0.443	0.0666647	0.275858
0.444	0.266748	0.275858
0.445	0.052567	0.275483
0.446	-0.204055	0.275858
0.447	-0.184545	0.275858
0.448	0.0167731	0.275483
0.449	0.157284	0.275483
0.45	0.163945	0.275858
0.451	0.0164728	0.275858
0.452	-0.209823	0.275858
0.453	-0.168637	0.275483
0.454	0.114056	0.275483
0.455	0.168089	0.275483
0.456	0.0443468	0.275858
0.457	-0.087113	0.275483
0.458	-0.148132	0.275858
0.459	-0.0434064	0.275483
0.46	0.165062	0.275858
0.461	0.214073	0.275483
0.462	-0.0866778	0.275858
0.463	-0.22322	0.275858
0.464	-0.0996272	0.275858
0.465	0.0764027	0.275483
0.466	0.156132	0.275483
0.467	0.104963	0.275483
0.468	-0.0506005	0.275858
0.469	-0.208055	0.275483
0.47	-0.0409956	0.275483
0.471	0.128642	0.275858
0.472	0.103041	0.275483
0.473	-0.00563939	0.275483
0.474	-0.0951733	0.275483
0.475	-0.090934	0.275483
0.476	0.0211348	0.275858
0.477	0.168162	0.275858
0.478	0.0660453	0.275858
0.479	-0.141867	0.275858
0.48	-0.146644	0.275858
0.481	0.00829953	0.275858
0.482	0.104894	0.275858
0.483	0.112977	0.275858
0.484	0.0271228	0.275858
0.485	-0.110036	0.275858
0.486	-0.126114	0.275858
0.487	0.0555956	0.275483
0.488	0.0957851	0.275858
0.489	0.0275049	0.275483
0.49	-0.0389803	0.275858
0.491	-0.0751059	0.275483
0.492	-0.0394917	0.275483
0.493	0.0649101	0.275483
0.494	0.136785	0.275483
0.495	-0.035164	0.275483
0.496	-0.120236	0.275483
0.497	-0.0583632	0.275858
0.498	0.0356755	0.275483
0.499	0.0857725	0.275483
0.5	0.0709495	0.275858
0.501	-0.0231964	0.275858
0.502	-0.126222	0.275483
0.503	-0.040742	0.275483
0.504	0.0871314	0.275483
0.505	0.0660506	0.275483
0.506	-0.00701569	0.275483
0.507	-0.0532503	0.275858
0.508	-0.0674209	0.275483
0.509	-0.00488364	0.275858
0.51	0.106501	0.275858
0.511	0.0895432	0.275858
0.512	-0.0809908	0.275858
0.513	-0.112626	0.275858
0.514	-0.0195569	0.275858
0.515	0.0622595	0.275483
0.516	0.0873974	0.275858
0.517	0.037772	0.275858
0.518	-0.0613677	0.275483
0.519	-0.129243	0.275858
0.52	0.0164677	0.275858
0.521	0.0951364	0.275858
0.522	0.0584115	0.275858
0.523	-0.021144	0.275858
0.524	-0.080473	0.275483
0.525	-0.0590584	0.275483
0.526	0.0349985	0.275858
0.527	0.136965	0.275858
0.528	0.0284075	0.275483
0.529	-0.117159	0.275483
0.53	-0.0960388	0.275483
0.531	0.0246647	0.275483
0.532	0.0887974	0.275483
0.533	0.0786022	0.275858
0.534	-0.000511556	0.275483
0.535	-0.106493	0.275483
0.536	-0.102934	0.275483
0.537	0.0623379	0.275483
0.538	0.102623	0.275483
0.539	0.0353055	0.275483
0.54	-0.047825	0.275483
0.541	-0.0840991	0.275483
0.542	-0.0271406	0.275483
0.543	0.0712366	0.275483
0.544	0.130555	0.275483
0.545	-0.03773	0.275483
0.546	-0.135444	0.275483
0.547	-0.0745965	0.275483
0.548	0.0469587	0.275858
0.549	0.104494	0.275483
0.55	0.0771652	0.275483
0.551	-0.0177276	0.275483
0.552	-0.127299	0.275483
0.553	-0.0458903	0.275483
0.554	0.0857217	0.275483
0.555	0.0562078	0.275858
0.556	-0.0301933	0.275483
0.557	-0.0860704	0.275483
0.558	-0.0478333	0.275483
0.559	0.0661077	0.275483
0.56	0.151209	0.275858
0.561	0.0721077	0.275483
0.562	-0.145339	0.275483
0.563	-0.152742	0.275858
0.564	-0.0280288	0.275483
0.565	0.0797152	0.275858
0.566	0.117144	0.275483
0.567	0.0694633	0.275483
0.568	-0.041954	0.275483
0.569	-0.154621	0.275483
0.57	-0.00287868	0.275858
0.571	0.0885499	0.275483
0.572	0.0570321	0.275483
0.573	-0.03303	0.275483
0.574	-0.076655	0.275483
0.575	-0.0439652	0.275483
0.576	0.0558666	0.275483
0.577	0.16112	0.275483
0.578	0.0181743	0.275858
0.579	-0.150526	0.275483
0.58	-0.135664	0.275858
0.581	0.00266362	0.275483
0.582	0.09651	0.275483
0.583	0.131974	0.275483
0.584	0.0685487	0.275483
0.585	-0.090331	0.275483
0.586	-0.125792	0.275483
0.587	0.0147116	0.275483
0.588	0.0344221	0.275483
0.589	0.00348736	0.275483
0.59	-0.04358	0.275483
0.591	-0.0473216	0.275483
0.592	0.0382936	0.275483
0.593	0.120698	0.275483
0.594	0.14453	0.275858
0.595	-0.0752449	0.275858
0.596	-0.19125	0.275483
0.597	-0.116774	0.275483
0.598	0.0450527	0.275483
0.599	0.120874	0.275858
0.6	0.0787046	0.275483
0.601	3.71543e-05	0.275483
0.602	-0.0874271	0.275483
0.603	-0.00881486	0.275483
0.604	0.0652235	0.275483
0.605	0.0111327	0.275858
0.606	-0.0519793	0.275483
0.607	-0.0775794	0.275483
0.608	-0.0512561	0.275483
0.609	0.039272	0.275483
0.61	0.167991	0.275858
0.611	0.116251	0.275858
0.612	-0.108434	0.275483
0.613	-0.159459	0.275483
0.614	-0.0497142	0.275483
0.615	0.0634224	0.275483
0.616	0.0888788	0.275483
0.617	0.013331	0.275483
0.618	-0.0578523	0.275483
0.619	-0.0772743	0.275483
0.62	0.0755154	0.275483
0.621	0.106251	0.275858
0.622	0.00921875	0.275483
0.623	-0.0857973	0.275483
0.624	-0.102343	0.275483
0.625	-0.0114507	0.275483
0.626	0.0699171	0.275483
0.627	0.102293	0.275858
0.628	-0.00159725	0.275858
0.629	-0.0842757	0.275858
0.63	-0.0667905	0.275858
0.631	0.0341887	0.275858
0.632	0.088397	0.275858
0.633	0.052858	0.275858
0.634	-0.0323314	0.275858
0.635	-0.109633	0.275858
0.636	-0.0947172	0.275858
0.637	0.0967307	0.275858
0.638	0.11363	0.275858
0.639	0.0152336	0.275858
0.64	-0.0617638	0.275858
0.641	-0.0753178	0.275858
0.642	-0.0220497	0.275858
0.643	0.0800268	0.275858
0.644	0.117922	0.275858
0.645	-0.0525445	0.275858
0.646	-0.120217	0.275858
0.647	-0.0558388	0.275858
0.648	0.0380212	0.275858
0.649	0.0885682	0.275858
0.65	0.0699645	0.275858
0.651	-0.0090947	0.275858
0.652	-0.115239	0.275858
0.653	-0.0342029	0.275858
0.654	0.0668461	0.275858
0.655	0.0529317	0.275858
0.656	-0.0116615	0.275858
0.657	-0.0671615	0.275858
0.658	-0.0666242	0.275858
0.659	0.0132571	0.275858
0.66	0.129013	0.275858
0.661	0.0938568	0.275858
0.662	-0.0873608	0.275858
0.663	-0.109966	0.275858
0.664	0.000368117	0.275858
0.665	0.044577	0.275858
0.666	0.0443105	0.275858
0.667	-0.000854096	0.275858
0.668	-0.0853361	0.275858
0.669	-0.0774408	0.275858
0.67	0.137222	0.275858
0.671	0.142299	0.275858
0.672	-0.0423287	0.275858
0.673	-0.147088	0.275858
0.674	-0.0602854	0.275858
0.675	0.0107068	0.275858
0.676	0.0737282	0.275858
0.677	0.144544	0.275858
0.678	-0.0218546	0.275858
0.679	-0.136635	0.275858
0.68	-0.0847663	0.275858
0.681	0.0329781	0.275858
0.682	0.097349	0.275858
0.683	0.0842045	0.275858
0.684	-0.0172501	0.275858
0.685	-0.0946734	0.275858
0.686	-0.0790309	0.275858
0.687	0.0614656	0.275858
0.688	0.0702185	0.275858
0.689	-0.00943639	0.275858
0.69	-0.0720788	0.275858
0.691	-0.04113	0.275858
0.692	0.0598227	0.275858
0.693	0.0962387	0.275858
0.694	0.0765929	0.275858
0.695	-0.0986793	0.275858
0.696	-0.169593	0.275858
0.697	-0.0607559	0.275858
0.698	0.0894733	0.275858
0.699	0.157461	0.275858
0.7	0.0853251	0.275858
0.701	-0.04213	0.275858
0.702	-0.166881	0.275858
0.703	-0.0992922	0.275858
0.704	0.0886962	0.275858
0.705	0.104207	0.275858
0.706	0.032444	0.275858
0.707	-0.0677941	0.275858
0.708	-0.0706056	0.275858
0.709	0.0224523	0.275858
0.71	0.115709	0.275858
0.711	0.0462258	0.275858
0.712	-0.145805	0.275858
0.713	-0.106664	0.275858
0.714	0.0383678	0.275858
0.715	0.102968	0.275858
0.716	0.0913857	0.275858
0.717	0.0186001	0.275858
0.718	-0.0821084	0.275858
0.719	-0.172642	0.275858
0.72	0.0021271	0.275858
0.721	0.157738	0.275858
0.722	0.105957	0.275858
0.723	-0.0433229	0.275858
0.724	-0.12863	0.275858
0.725	-0.0788892	0.275858
0.726	0.0660131	0.275858
0.727	0.102954	0.275858
0.728	0.0238089	0.275858
0.729	-0.0231818	0.275858
0.73	-0.106666	0.275858
0.731	0.011648	0.275858
0.732	0.0868628	0.275858
0.733	0.0711899	0.275858
0.734	-0.0102382	0.275858
0.735	-0.241363	0.275858
0.736	-0.14582	0.275858
0.737	0.200272	0.275858
0.738	0.226438	0.275858
0.739	0.0542994	0.275858
0.74	-0.0701384	0.275858
0.741	-0.1315	0.275858
0.742	-0.0512351	0.275858
0.743	0.0880188	0.275858
0.744	0.0485106	0.275858
0.745	-0.14542	0.275858
0.746	-0.139162	0.275858
0.747	0.0231327	0.275858
0.748	0.167699	0.275858
0.749	0.20443	0.275858
0.75	0.163102	0.275858
0.751	-0.0786184	0.275858
0.752	-0.289131	0.275858
0.753	-0.165167	0.275858
0.754	-0.0732527	0.275858
0.755	0.0465825	0.275858
0.756	0.203611	0.275858
0.757	0.158043	0.275858
0.758	-0.000949184	0.275858
0.759	-0.000876332	0.275858
0.76	0.0351108	0.27623
0.761	-0.128218	0.275858
0.762	-0.205109	0.275858
0.763	-0.0824131	0.27623
0.764	0.0516008	0.275858
0.765	0.143014	0.275858
0.766	0.192234	0.275858
0.767	0.123412	0.275858
0.768	-0.084891	0.27623
0.769	-0.273083	0.275858
0.77	-0.127534	0.27623
0.771	0.0848381	0.27623
0.772	0.0826503	0.275858
0.773	-0.0174043	0.27623
0.774	0.0453198	0.27623
0.775	0.131361	0.27623
0.776	0.0417146	0.27623
0.777	-0.0645316	0.27623
0.778	-0.149633	0.27623
0.779	-0.0979759	0.27623
0.78	-0.0617591	0.27623
0.781	0.101338	0.27623
0.782	0.220943	0.27623
0.783	0.127808	0.27623
0.784	-0.10442	0.27623
0.785	-0.276805	0.27623
0.786	-0.117818	0.27623
0.787	0.167554	0.27623
0.788	0.198511	0.27623
0.789	0.0983624	0.27623
0.79	-0.118151	0.27623
0.791	-0.220533	0.27623
0.792	-0.043288	0.27623
0.793	0.101675	0.27623
0.794	0.177495	0.27623
0.795	-0.00272577	0.27623
0.796	-0.100163	0.27623
0.797	-0.0742252	0.27623
0.798	0.0552542	0.27623
0.799	0.073721	0.27623
0.8	0.0117121	0.27623
0.801	-0.0827621	0.27623
0.802	-0.185662	0.27623
0.803	0.064974	0.27623
0.804	0.251114	0.27623
0.805	0.0770487	0.27623
0.806	-0.062544	0.27623
0.807	-0.122385	0.27623
0.808	-0.133124	0.27623
0.809	-0.00836866	0.27623
0.81	0.0885832	0.27623
0.811	0.0700898	0.27623
0.812	-0.0192837	0.27623
0.813	-0.0282116	0.275858
0.814	0.0771221	0.27623
0.815	0.0983618	0.27623
0.816	0.0356078	0.27623
0.817	-0.0746339	0.275858
0.818	-0.234903	0.27623
0.819	-0.197725	0.27623
0.82	0.0881387	0.27623
0.821	0.247326	0.275858
0.822	0.140306	0.275858
0.823	0.0535644	0.27623
0.824	-0.0114575	0.275858
0.825	-0.0919757	0.275858
0.826	-0.119697	0.27623
0.827	-0.0727438	0.275858
0.828	-0.132248	0.27623
0.829	0.0420627	0.27623
0.83	0.161843	0.275858
0.831	0.152086	0.275858
0.832	0.033252	0.27623
0.833	-0.0393098	0.27623
0.834	-0.0769185	0.275858
0.835	-0.188394	0.27623
0.836	-0.0853696	0.275858
0.837	0.219879	0.27623
0.838	0.193768	0.275858
0.839	0.00145237	0.27623
0.84	-0.113908	0.275858
0.841	-0.256564	0.27623
0.842	-0.205933	0.275858
0.843	0.20046	0.27623
0.844	0.421383	0.275858
0.845	0.0740255	0.275858
0.846	-0.204382	0.275858
0.847	-0.155176	0.275858
0.848	-0.0490687	0.27623
0.849	0.0360985	0.275858
0.85	0.0619623	0.27623
0.851	-0.0360435	0.275858
0.852	-0.107497	0.275858
0.853	0.0516186	0.275858
0.854	0.143646	0.275858
0.855	0.0617965	0.275858
0.856	-0.0146317	0.275858
0.857	-0.0743844	0.275858
0.858	-0.0809313	0.275858
0.859	-0.0190343	0.275858
0.86	0.0874847	0.275858
0.861	0.0433828	0.275858
0.862	-0.154095	0.275858
0.863	-0.0822025	0.275858
0.864	0.08374	0.275858
0.865	0.164843	0.275858
0.866	0.15933	0.275858
0.867	-0.0238244	0.275858
0.868	-0.223313	0.275858
0.869	-0.217317	0.275858
0.87	0.0628086	0.275858
0.871	0.149	0.275858
0.872	0.074529	0.275858
0.873	-0.015631	0.275858
0.874	-0.0440138	0.275858
0.875	0.0411475	0.275858
0.876	0.136844	0.275858
0.877	0.0138353	0.275858
0.878	-0.234314	0.275858
0.879	-0.226256	0.275858
0.88	0.000646596	0.275858
0.881	0.210248	0.275858
0.882	0.253958	0.275858
0.883	0.119885	0.275858
0.884	-0.0786442	0.275858
0.885	-0.256667	0.275858
0.886	-0.184493	0.275858
0.887	0.0169704	0.275858
0.888	0.0939087	0.275858
0.889	0.141618	0.275858
0.89	0.0510818	0.275858
0.891	-0.0290336	0.275858
0.892	0.0420942	0.275858
0.893	0.0119586	0.275858
0.894	-0.0585894	0.275858
0.895	-0.16586	0.275858
0.896	-0.103557	0.275858
0.897	0.0593019	0.275858
0.898	0.166042	0.275858
0.899	0.157182	0.275858
0.9	0.0340513	0.275858
0.901	-0.0870312	0.275858
0.902	-0.176006	0.275858
0.903	-0.124702	0.275858
0.904	-0.000252987	0.275858
0.905	0.171334	0.275858
0.906	0.171303	0.275483
0.907	0.0299671	0.275858
0.908	-0.179949	0.275858
0.909	-0.151692	0.275858
0.91	0.0983231	0.275858
0.911	0.0991159	0.275858
0.912	-0.0400018	0.275483
0.913	-0.0438131	0.275858
0.914	0.00654601	0.275858
0.915	0.0327489	0.275858
0.916	0.075075	0.275483
0.917	-0.0138936	0.275858
0.918	-0.10469	0.275858
0.919	-0.0955852	0.275858
0.92	0.0828584	0.275858
0.921	0.147813	0.275858
0.922	0.0169188	0.275858
0.923	-0.135655	0.275858
0.924	-0.0961462	0.275858
0.925	0.00460167	0.275858
0.926	0.0930982	0.275858
0.927	0.154223	0.275858
0.928	-0.0481212	0.275858
0.929	-0.116454	0.275858
0.93	-0.0208477	0.275858
0.931	0.0577168	0.275858
0.932	0.0401611	0.275858
0.933	-0.060834	0.275858
0.934	-0.0530572	0.275858
0.935	-0.087685	0.275858
0.936	-0.00645075	0.275858
0.937	0.174899	0.275858
0.938	0.177686	0.275858
0.939	0.0527807	0.275858
0.94	-0.126229	0.275858
0.941	-0.206471	0.275858
0.942	-0.150682	0.275858
0.943	0.0152055	0.275858
0.944	0.164836	0.275858
0.945	0.0824647	0.275858
0.946	0.0173151	0.275858
0.947	0.033442	0.275858
0.948	0.0585025	0.275858
0.949	-0.0123229	0.275858
0.95	-0.0539969	0.275483
0.951	-0.171672	0.275858
0.952	-0.200452	0.275483
0.953	0.0158398	0.275858
0.954	0.232719	0.275858
0.955	0.249246	0.275858
0.956	0.0947148	0.275483
0.957	-0.0673095	0.275483
0.958	-0.208171	0.275483
0.959	-0.25647	0.275483
0.96	-0.0211837	0.275483
0.961	0.158762	0.275483
0.962	0.140624	0.275483
0.963	0.0279641	0.275858
0.964	0.0636195	0.275858
0.965	0.0119423	0.275858
0.966	-0.0540603	0.275483
0.967	-0.117346	0.275483
0.968	-0.175669	0.275858
0.969	-0.0307772	0.275858
0.97	0.230709	0.275483
0.971	0.203158	0.275858
0.972	-0.0109798	0.275858
0.973	-0.162118	0.275858
0.974	-0.092615	0.275858
0.975	-0.0398739	0.275858
0.976	0.0330033	0.275858
0.977	0.168223	0.275858
0.978	0.0458803	0.275858
0.979	-0.103344	0.275858
0.98	-0.152352	0.275858
0.981	-0.0186161	0.275858
0.982	0.170218	0.275858
0.983	0.161226	0.275858
0.984	-0.056555	0.275858
0.985	-0.204994	0.275858
0.986	-0.0753663	0.275858
0.987	0.121211	0.275858
0.988	0.0418734	0.275858
0.989	-0.0436341	0.275858
0.99	0.0275096	0.275858
0.991	0.0544121	0.275858
0.992	0.0237062	0.275858
0.993	-0.00132673	0.275858
0.994	-0.0205314	0.275858
0.995	-0.168596	0.275858
0.996	-0.129934	0.275858
0.997	0.125268	0.275858
0.998	0.231402	0.275858
0.999	0.0967553	0.275858
1	-0.0659554	0.275858
1.001	-0.156804	0.275858
1.002	-0.167953	0.275858
1.003	0.0402642	0.275858
1.004	0.115754	0.275858
1.005	0.0744773	0.275858
1.006	0.0114903	0.275858
1.007	-0.0786389	0.275858
1.008	-0.04306	0.275858
1.009	0.0635746	0.275858
1.01	0.140422	0.275858
1.011	-0.0183693	0.275858
1.012	-0.257825	0.275858
1.013	-0.148103	0.275858
1.014	0.0968807	0.275858
1.015	0.207882	0.275858
1.016	0.17692	0.275858
1.017	0.065726	0.275858
1.018	-0.180007	0.275858
1.019	-0.267695	0.275858
1.02	-0.00350581	0.275858
1.021	0.0650251	0.275858
1.022	0.0839166	0.275858
1.023	0.0634911	0.275858
1.024	0.0189114	0.275858
1.025	-0.0253881	0.275858
1.026	-0.00838312	0.275858
1.027	0.0751156	0.275858
1.028	-0.0879929	0.275858
1.029	-0.135104	0.275858
1.03	-0.0202063	0.275858
1.031	0.0856494	0.275858
1.032	0.147884	0.275858
1.033	0.0952363	0.275858
1.034	-0.106527	0.275858
1.035	-0.187795	0.275858
1.036	-0.0949409	0.275858
1.037	0.131016	0.275858
1.038	0.149021	0.275858
1.039	0.0541387	0.275858
1.04	-0.0608161	0.275858
1.041	-0.132992	0.275858
1.042	-0.0109261	0.275858
1.043	0.0655628	0.275858
1.044	0.0878037	0.275858
1.045	-0.0555559	0.275858
1.046	-0.104721	0.275858
1.047	0.00881604	0.275858
1.048	0.145585	0.275858
1.049	0.00513332	0.275858
1.05	-0.0786857	0.275858
1.051	0.0102214	0.275858
1.052	-0.0549735	0.275858
1.053	-0.00312962	0.275858
1.054	0.106513	0.275858
1.055	0.0773235	0.275858
1.056	-0.0450338	0.275858
1.057	-0.143424	0.275858
1.058	-0.159695	0.275858
1.059	0.0551225	0.275858
1.06	0.275933	0.275858
1.061	0.118029	0.275858
1.062	-0.0722241	0.275858
1.063	-0.0954579	0.275858
1.064	-0.120144	0.275858
1.065	-0.0961978	0.275858
1.066	0.0766686	0.275858
1.067	0.0731557	0.275858
1.068	-0.062833	0.275858
1.069	0.0311986	0.275858
1.07	0.168812	0.275858
1.071	0.0469431	0.275858
1.072	-0.0810817	0.275858
1.073	-0.0855324	0.275858
1.074	-0.138197	0.275858
1.075	-0.0862373	0.275858
1.076	0.145076	0.275858
1.077	0.194677	0.275858
1.078	0.0121339	0.275858
1.079	-0.107032	0.275858
1.08	-0.120482	0.275858
1.081	-0.0211801	0.275858
1.082	0.100581	0.275858
1.083	0.0900603	0.275858
1.084	0.0223781	0.275858
1.085	-0.113144	0.275858
1.086	-0.0543858	0.275858
1.087	0.0538968	0.275858
1.088	0.00982249	0.275858
1.089	-0.0464559	0.275858
1.09	-0.0243779	0.275858
1.091	0.00448133	0.275858
1.092	0.0611677	0.275858
1.093	0.131026	0.275858
1.094	0.0467754	0.275483
1.095	-0.17757	0.275858
1.096	-0.157347	0.275483
1.097	0.0278703	0.275858
1.098	0.140431	0.275483
1.099	0.11074	0.275483
1.1	-0.0349092	0.275483
1.101	-0.139702	0.275483
1.102	-0.140635	0.275483
1.103	0.094184	0.275858
1.104	0.18868	0.275483
1.105	0.0720244	0.275858
1.106	-0.0763356	0.275483
1.107	-0.132629	0.275483
1.108	-0.0434369	0.275858
1.109	0.0453863	0.275483
1.11	0.0715595	0.275483
1.111	-0.00168647	0.275858
1.112	-0.0663381	0.275483
1.113	-0.0969574	0.275858
1.114	0.0809779	0.275858
1.115	0.1485	0.275858
1.116	0.0732709	0.275858
1.117	-0.0128312	0.275858
1.118	-0.227708	0.275858
1.119	-0.1541	0.275858
1.12	0.130568	0.275858
1.121	0.149724	0.275858
1.122	0.0405083	0.275858
1.123	0.00168825	0.275858
1.124	-0.105957	0.275858
1.125	-0.144459	0.275858
1.126	0.1014	0.275858
1.127	0.163563	0.275858
1.128	-0.0476499	0.275858
1.129	-0.0585028	0.275858
1.13	0.0202465	0.275858
1.131	0.0123458	0.275858
1.132	-0.0581335	0.275858
1.133	-0.0715086	0.275858
1.134	0.0299419	0.275858
1.135	0.0885663	0.275858
1.136	0.0813135	0.275858
1.137	0.0389506	0.275858
1.138	-0.105575	0.275858
1.139	-0.124935	0.275858
1.14	0.000886289	0.275858
1.141	0.01928	0.275483
1.142	0.0792147	0.275858
1.143	0.12203	0.275858
1.144	0.0589754	0.275858
1.145	-0.13956	0.275858
1.146	-0.172695	0.275858
1.147	0.0402369	0.275858
1.148	0.0760639	0.275858
1.149	0.00909231	0.275858
1.15	-0.0390473	0.275858
1.151	0.00642496	0.275858
1.152	0.0263593	0.275858
1.153	0.12353	0.275858
1.154	0.0983265	0.275858
1.155	-0.0637399	0.275858
1.156	-0.208489	0.275858
1.157	-0.177019	0.275858
1.158	0.0038386	0.275858
1.159	0.1664	0.275858
1.16	0.186677	0.275858
1.161	-0.0200391	0.275858
1.162	-0.107025	0.275858
1.163	-0.03367	0.275858
1.164	0.0988104	0.275858
1.165	0.0920359	0.275858
1.166	-0.0372089	0.275858
1.167	-0.162433	0.275858
1.168	-0.15928	0.275858
1.169	-0.132845	0.275858
1.17	0.186891	0.275858
1.171	0.325617	0.275858
1.172	0.121555	0.275858
1.173	-0.131595	0.275858
1.174	-0.221923	0.275858
1.175	-0.121613	0.275858
1.176	0.037648	0.275858
1.177	0.15202	0.275858
1.178	0.0411114	0.275858
1.179	-0.0222669	0.275858
1.18	-0.0432193	0.275858
1.181	0.00356246	0.275858
1.182	0.0352748	0.275858
1.183	0.0187535	0.275858
1.184	-0.0604439	0.275858
1.185	-0.13779	0.275858
1.186	-0.018727	0.275858
1.187	0.138732	0.275858
1.188	0.207731	0.275858
1.189	0.0875814	0.275858
1.19	-0.169286	0.275858
1.191	-0.252514	0.275858
1.192	-0.0864377	0.275858
1.193	0.131207	0.275858
1.194	0.232527	0.275858
1.195	-0.00872664	0.275858
1.196	-0.124729	0.275858
1.197	-0.0136136	0.275858
1.198	0.0333477	0.275858
1.199	-0.00631627	0.275858
1.2	-0.0346179	0.275858
1.201	0.0264837	0.275483
1.202	-0.0103932	0.275858
1.203	0.0340894	0.275858
1.204	0.0558951	0.275858
1.205	0.0151456	0.275483
1.206	-0.0920437	0.275483
1.207	-0.125854	0.275858
1.208	0.034388	0.275483
1.209	0.126211	0.275483
1.21	0.0951532	0.275483
1.211	-0.0786118	0.275858
1.212	-0.152913	0.275483
1.213	0.000808316	0.275858
1.214	0.146464	0.275483
1.215	0.0589991	0.275858
1.216	0.0363183	0.275483
1.217	0.0169986	0.275483
1.218	-0.161447	0.275483
1.219	-0.254835	0.275483
1.22	0.0431738	0.275483
1.221	0.198591	0.275483
1.222	0.180729	0.275483
1.223	-0.0249452	0.275483
1.224	-0.127236	0.275483
1.225	0.0091647	0.275483
1.226	0.0896588	0.275483
1.227	0.0447242	0.275483
1.228	-0.153926	0.275483
1.229	-0.199955	0.275483
1.23	-0.0285843	0.275483
1.231	0.107065	0.275483
1.232	0.248581	0.275483
1.233	0.180965	0.275483
1.234	-0.107522	0.275483
1.235	-0.237788	0.275483
1.236	-0.132221	0.275483
1.237	0.065741	0.275483
1.238	0.141787	0.275483
1.239	0.0500198	0.275483
1.24	-0.0963181	0.275483
1.241	-0.0909896	0.275483
1.242	0.0751361	0.275483
1.243	0.187369	0.275483
1.244	0.0200225	0.275483
1.245	-0.178572	0.275483
1.246	-0.170779	0.275483
1.247	-0.0545035	0.275483
1.248	0.156882	0.275483
1.249	0.214928	0.275483
1.25	0.0666728	0.275483
1.251	-0.113537	0.275483
1.252	-0.187304	0.275483
1.253	-0.0255672	0.275858
1.254	0.0641474	0.275858
1.255	0.0613918	0.275858
1.256	-0.0261326	0.275858
1.257	-0.0821584	0.275858
1.258	-0.0179751	0.275858
1.259	0.124636	0.275483
1.26	0.237561	0.275858
1.261	0.0332835	0.275858
1.262	-0.25958	0.275858
1.263	-0.273019	0.275858
1.264	-0.0730388	0.275858
1.265	0.181161	0.275483
1.266	0.292946	0.275858
1.267	0.110884	0.275483
1.268	-0.167313	0.275858
1.269	-0.218242	0.275858
1.27	-0.00542555	0.275858
1.271	0.105777	0.275858
1.272	0.100634	0.275858
1.273	0.00961143	0.275858
1.274	-0.110691	0.275858
1.275	-0.0579688	0.275858
1.276	0.0446624	0.275858
1.277	0.0922014	0.275858
1.278	-0.0584689	0.275858
1.279	0.0269261	0.275858
1.28	-0.0707684	0.275858
1.281	-0.0295771	0.275858
1.282	0.0942107	0.275858
1.283	0.0812354	0.275858
1.284	-0.0309407	0.275858
1.285	-0.0662622	0.275858
1.286	-0.105372	0.275858
1.287	0.00471022	0.275858
1.288	0.152713	0.275858
1.289	0.0252383	0.275858
1.29	-0.102381	0.275858
1.291	-0.0181941	0.275858
1.292	-0.0239086	0.275858
1.293	0.0640787	0.275858
1.294	0.120943	0.275858
1.295	-0.00777064	0.275858
1.296	-0.0690686	0.275858
1.297	-0.109508	0.275858
1.298	-0.0685678	0.275858
1.299	0.0317072	0.275858
1.3	0.118509	0.275858
1.301	0.0925702	0.275858
1.302	-0.0186882	0.275858
1.303	-0.129556	0.275858
1.304	0.0517264	0.275858
1.305	0.0958699	0.275858
1.306	0.0187342	0.275858
1.307	-0.10865	0.275858
1.308	-0.188593	0.275858
1.309	-0.0740112	0.275858
1.31	0.131796	0.275858
1.311	0.29636	0.275858
1.312	0.0871981	0.275858
1.313	-0.144816	0.275858
1.314	-0.172048	0.275858
1.315	-0.0719419	0.275858
1.316	0.0385102	0.275858
1.317	0.14708	0.275858
1.318	0.0246501	0.275858
1.319	-0.136051	0.275858
1.32	-0.0745249	0.275858
1.321	0.141256	0.275858
1.322	0.101819	0.275858
1.323	-0.0265996	0.275858
1.324	-0.0981309	0.275858
1.325	-0.110263	0.275858
1.326	-0.0772559	0.275858
1.327	0.088179	0.275858
1.328	0.265889	0.275858
1.329	0.0472367	0.275858
1.33	-0.114713	0.275858
1.331	-0.108342	0.275858
1.332	-0.0523779	0.275858
1.333	-0.00516307	0.275858
1.334	-0.0178895	0.275858
1.335	-0.0318124	0.275858
1.336	-0.014335	0.275858
1.337	0.0819133	0.275858
1.338	0.202034	0.275858
1.339	0.107715	0.275858
1.34	-0.0926608	0.275858
1.341	-0.18394	0.275858
1.342	-0.184676	0.275858
1.343	-0.03593	0.275858
1.344	0.198906	0.275858
1.345	0.169686	0.275858
1.346	-0.0602228	0.275858
1.347	-0.109782	0.275858
1.348	-0.060955	0.275858
1.349	0.0669286	0.275858
1.35	0.137348	0.275858
1.351	0.0408728	0.275858
1.352	-0.0996122	0.275858
1.353	-0.197658	0.275858
1.354	0.0383227	0.275858
1.355	0.168256	0.275858
1.356	0.0285502	0.275858
1.357	-0.134203	0.275858
1.358	-0.0854933	0.275858
1.359	0.0441665	0.275858
1.36	0.134554	0.275858
1.361	0.221043	0.275858
1.362	-0.0465019	0.275858
1.363	-0.30055	0.275858
1.364	-0.146791	0.275858
1.365	0.0201871	0.275858
1.366	0.154789	0.275858
1.367	0.192018	0.275858
1.368	0.0708123	0.275858
1.369	-0.0847365	0.275858
1.37	-0.215387	0.275858
1.371	-0.0361446	0.275858
1.372	0.0905674	0.275858
1.373	0.0770428	0.275483
1.374	-0.00857465	0.275858
1.375	-0.0458262	0.275858
1.376	-0.071808	0.275858
1.377	0.0854784	0.275858
1.378	0.169917	0.275858
1.379	0.00522623	0.275858
1.38	-0.124216	0.275483
1.381	-0.169552	0.275858
1.382	-0.100282	0.275858
1.383	0.11088	0.275858
1.384	0.218758	0.275858
1.385	0.0127876	0.275858
1.386	-0.128707	0.275858
1.387	-0.00371481	0.275858
1.388	0.101675	0.275858
1.389	0.108183	0.275858
1.39	-0.104699	0.275858
1.391	-0.244188	0.275858
1.392	-0.0985567	0.275858
1.393	0.0932418	0.275858
1.394	0.203082	0.275858
1.395	0.124782	0.275858
1.396	-0.0534917	0.275483
1.397	-0.08845	0.275858
1.398	-0.00166144	0.275858
1.399	0.00799312	0.275858
1.4	-0.034859	0.275858
1.401	-0.0440342	0.275483
1.402	-0.0481809	0.275858
1.403	-0.0244626	0.275858
1.404	0.0950388	0.275858
1.405	0.0905485	0.275858
1.406	0.00539463	0.275858
1.407	-0.0447857	0.275483
1.408	-0.0585676	0.275858
1.409	-0.0140955	0.275858
1.41	0.0685116	0.275483
1.411	0.10094	0.275858
1.412	-0.0385566	0.275858
1.413	-0.14832	0.275858
1.414	-0.113241	0.275858
1.415	0.0154079	0.275858
1.416	0.0866511	0.275858
1.417	0.0957603	0.275858
1.418	0.066468	0.275858
1.419	0.0238661	0.275858
1.42	0.0208227	0.275858
1.421	-0.0254045	0.275858
1.422	-0.133318	0.275858
1.423	-0.0872581	0.275858
1.424	-0.061585	0.275858
1.425	-0.0655529	0.275858
1.426	0.120326	0.275858
1.427	0.222727	0.275858
1.428	0.174364	0.275858
1.429	-0.0997028	0.275858
1.43	-0.20613	0.275858
1.431	-0.101677	0.275858
1.432	0.00786211	0.275858
1.433	0.117501	0.275858
1.434	0.108354	0.275858
1.435	-0.06914	0.275858
1.436	-0.184054	0.275858
1.437	0.00182272	0.275858
1.438	0.158915	0.275858
1.439	0.0791928	0.275858
1.44	0.00100493	0.275858
1.441	-0.0340757	0.275858
1.442	-0.0588	0.275858
1.443	-0.0464798	0.275858
1.444	0.00098766	0.275858
1.445	0.0138164	0.275858
1.446	0.0214836	0.275858
1.447	0.00834642	0.275858
1.448	-0.0379224	0.275483
1.449	0.013338	0.275858
1.45	0.109994	0.275858
1.451	0.06412	0.275858
1.452	-0.122059	0.275483
1.453	-0.205116	0.275858
1.454	0.0835546	0.275858
1.455	0.118345	0.275858
1.456	0.0370812	0.275858
1.457	0.0250086	0.275858
1.458	-0.0847868	0.275483
1.459	-0.0715115	0.275483
1.46	0.0675631	0.275483
1.461	0.0795809	0.275483
1.462	-0.0212812	0.275483
1.463	-0.0764563	0.275483
1.464	-0.0944964	0.275483
1.465	0.0340758	0.275858
1.466	0.120926	0.275483
1.467	0.0926394	0.275483
1.468	-0.0110227	0.275483
1.469	-0.139198	0.275483
1.47	-0.0961658	0.275483
1.471	0.0743371	0.275483
1.472	0.0746655	0.275483
1.473	0.00422859	0.275483
1.474	-0.066637	0.275483
1.475	-0.0195282	0.275483
1.476	0.0517549	0.275483
1.477	0.104608	0.275483
1.478	0.0629258	0.275483
1.479	-0.164326	0.275483
1.48	-0.186896	0.275483
1.481	0.0200315	0.275483
1.482	0.104198	0.275483
1.483	0.101357	0.275483
1.484	0.0940682	0.275483
1.485	-0.0212284	0.275483
1.486	-0.131796	0.275483
1.487	-0.00782846	0.275483
1.488	0.050405	0.275483
1.489	-0.017193	0.275483
1.49	-0.0224385	0.275483
1.491	-0.138557	0.275483
1.492	-0.0807104	0.275483
1.493	0.099044	0.275483
1.494	0.301949	0.275483
1.495	0.170667	0.275483
1.496	-0.13682	0.275483
1.497	-0.208703	0.275483
1.498	-0.150897	0.275483
1.499	-0.067209	0.275483
1.5	0.0509569	0.275483
1.501	0.140099	0.275483
1.502	0.0889524	0.275483
1.503	0.00746036	0.275483
1.504	0.0270933	0.275483
1.505	-0.0109291	0.275483
1.506	-0.0439318	0.275483
1.507	-0.0646109	0.275483
1.508	-0.0741187	0.275483
1.509	-0.0121845	0.275483
1.51	0.0930195	0.275483
1.511	0.176004	0.275483
1.512	-0.0845693	0.275483
1.513	-0.181824	0.275483
1.514	-0.0169469	0.275483
1.515	0.0833896	0.275483
1.516	0.106367	0.275858
1.517	0.067043	0.275483
1.518	-0.0172112	0.275483
1.519	-0.14836	0.275483
1.52	-0.143841	0.275483
1.521	0.0598597	0.275858
1.522	0.193757	0.275858
1.523	0.0362701	0.275858
1.524	-0.0714118	0.275483
1.525	-0.101988	0.275483
1.526	-0.0250414	0.275858
1.527	0.0781227	0.275858
1.528	0.0876346	0.275858
1.529	-0.0444405	0.275858
1.53	-0.0518657	0.275858
1.531	-0.0210714	0.275858
1.532	0.0235303	0.275483
1.533	0.0661953	0.275858
1.534	0.0115367	0.275858
1.535	-0.106779	0.275858
1.536	-0.151347	0.275858
1.537	0.132736	0.275858
1.538	0.274689	0.275858
1.539	0.0245993	0.275858
1.54	-0.224425	0.275483
1.541	-0.176387	0.275858
1.542	-0.0265413	0.275483
1.543	0.112671	0.275483
1.544	0.180113	0.275483
1.545	0.06934	0.275483
1.546	-0.0781616	0.275858
1.547	-0.134385	0.275483
1.548	-0.0289719	0.275483
1.549	0.0663085	0.275858
1.55	0.0485389	0.275858
1.551	-0.0107234	0.275858
1.552	-0.0826766	0.275483
1.553	-0.0747706	0.275858
1.554	0.0846463	0.275858
1.555	0.113077	0.275858
1.556	0.0760737	0.275858
1.557	-0.0204699	0.275858
1.558	-0.137181	0.275483
1.559	-0.124573	0.275858
1.56	0.0374338	0.275483
1.561	0.111326	0.275858
1.562	-0.0268376	0.275858
1.563	0.0143424	0.275858
1.564	0.044057	0.275858
1.565	-0.0248897	0.275858
1.566	-0.0099696	0.275858
1.567	0.0382106	0.275858
1.568	0.0010828	0.275858
1.569	-0.115652	0.275858
1.57	-0.0583194	0.275858
1.571	0.105359	0.275858
1.572	0.11354	0.275858
1.573	0.00739742	0.275858
1.574	-0.113234	0.275858
1.575	-0.131453	0.275858
1.576	-0.00848755	0.275858
1.577	0.147116	0.275858
1.578	0.178432	0.275858
1.579	-0.0209908	0.275858
1.58	-0.114091	0.275858
1.581	-0.114158	0.275858
1.582	-0.0731575	0.275858
1.583	0.0814274	0.275858
1.584	0.101258	0.275858
1.585	-0.0261007	0.275858
1.586	-0.0830832	0.275858
1.587	0.0425229	0.275858
1.588	0.105456	0.275858
1.589	0.071183	0.275858
1.59	-0.0572673	0.275858
1.591	-0.193082	0.275858
1.592	-0.10777	0.275858
1.593	0.0741267	0.275858
1.594	0.182982	0.275858
1.595	0.111565	0.275858
1.596	-0.0591999	0.275858
1.597	-0.0971871	0.275858
1.598	-0.00029411	0.275858
1.599	0.00538035	0.275858
1.6	-0.0749241	0.275858
1.601	-0.0591808	0.275858
1.602	0.00574002	0.275858
1.603	0.0500681	0.275858
1.604	0.159632	0.275858
1.605	0.131545	0.275858
1.606	-0.0469982	0.275858
1.607	-0.141064	0.275858
1.608	-0.119941	0.275858
1.609	-0.122884	0.275858
1.61	0.0245878	0.275858
1.611	0.241859	0.275858
1.612	0.0668868	0.275858
1.613	-0.10992	0.275858
1.614	-0.0374904	0.275858
1.615	0.0961141	0.275858
1.616	0.0204332	0.275858
1.617	-0.0253509	0.275858
1.618	-0.0226985	0.275858
1.619	-0.133682	0.275858
1.62	-0.105522	0.275858
1.621	0.0774283	0.275858
1.622	0.145242	0.275858
1.623	0.145244	0.275858
1.624	-0.0406407	0.275858
1.625	-0.163311	0.275858
1.626	-0.0328957	0.275858
1.627	0.0933657	0.275858
1.628	0.0904527	0.275858
1.629	-0.0853278	0.275858
1.63	-0.137556	0.275858
1.631	-0.0458622	0.275858
1.632	0.100717	0.275858
1.633	0.12548	0.275858
1.634	0.0392922	0.275858
1.635	-0.042263	0.275858
1.636	-0.117951	0.275858
1.637	-0.0131396	0.275858
1.638	0.0886025	0.275858
1.639	0.0588913	0.275858
1.64	-0.045417	0.275858
1.641	-0.1118	0.275858
1.642	-0.040791	0.275858
1.643	0.0103398	0.275858
1.644	0.108222	0.275858
1.645	0.10533	0.275858
1.646	-0.0397932	0.275858
1.647	-0.109317	0.275858
1.648	-0.0229394	0.275858
1.649	0.0888821	0.275858
1.65	0.109655	0.275858
1.651	-0.0262504	0.275858
1.652	-0.22283	0.275858
1.653	-0.185429	0.275858
1.654	0.116864	0.275858
1.655	0.241808	0.275858
1.656	0.13586	0.275858
1.657	-0.0167509	0.275858
1.658	-0.130453	0.275858
1.659	-0.124165	0.275858
1.66	-0.0295255	0.275858
1.661	0.0752642	0.275858
1.662	-0.00244921	0.275858
1.663	-0.0472261	0.275858
1.664	0.00506091	0.275858
1.665	0.0655498	0.275858
1.666	0.110322	0.275858
1.667	0.0688794	0.275858
1.668	-0.0764532	0.275858
1.669	-0.225352	0.275858
1.67	-0.10235	0.275858
1.671	0.142052	0.275483
1.672	0.176508	0.275858
1.673	0.0348134	0.275858
1.674	-0.0766436	0.275858
1.675	-0.104785	0.275858
1.676	-0.0208441	0.275858
1.677	0.0735073	0.275858
1.678	0.0635709	0.275858
1.679	-0.0667226	0.275483
1.68	-0.0801993	0.275858
1.681	0.0369401	0.275483
1.682	0.0963763	0.275858
1.683	0.0610129	0.275483
1.684	0.000973237	0.275483
1.685	-0.121803	0.275858
1.686	-0.170007	0.275483
1.687	0.0191319	0.275483
1.688	0.111651	0.275483
1.689	0.127823	0.275483
1.69	0.0782074	0.275483
1.691	-0.0106411	0.275483
1.692	-0.0839882	0.275858
1.693	-0.116102	0.275858
1.694	-0.0175154	0.275483
1.695	0.0141121	0.275483
1.696	-0.0548083	0.275858
1.697	-0.0191949	0.275483
1.698	0.141804	0.275483
1.699	0.152685	0.275483
1.7	0.103531	0.275483
1.701	-0.0710506	0.275483
1.702	-0.234695	0.275483
1.703	-0.24792	0.275858
1.704	0.0165969	0.275483
1.705	0.26248	0.275483
1.706	0.219843	0.275483
1.707	0.00674435	0.275483
1.708	-0.172155	0.275483
1.709	-0.146116	0.275483
1.71	0.00359188	0.275483
1.711	0.148935	0.275483
1.712	0.0222071	0.275483
1.713	-0.0868779	0.275483
1.714	-0.0786779	0.275858
1.715	0.0143143	0.275483
1.716	0.123165	0.275483
1.717	0.0770383	0.275858
1.718	-0.0208674	0.275483
1.719	-0.131707	0.275858
1.72	-0.0767191	0.275483
1.721	0.0797118	0.275483
1.722	0.0765074	0.275483
1.723	-0.00866568	0.275858
1.724	-0.0633944	0.275483
1.725	-0.0748041	0.275483
1.726	0.00805989	0.275483
1.727	0.144232	0.275858
1.728	0.119215	0.275483
1.729	-0.0635933	0.275483
1.73	-0.112931	0.275858
1.731	-0.117032	0.275483
1.732	-0.0314938	0.275483
1.733	0.107314	0.275483
1.734	0.161335	0.275483
1.735	0.0251676	0.275858
1.736	-0.18821	0.275858
1.737	-0.0628135	0.275858
1.738	0.0728994	0.275483
1.739	0.0484128	0.275858
1.74	0.00383864	0.275858
1.741	-0.0121003	0.275858
1.742	0.0127636	0.275483
1.743	0.0751731	0.275858
1.744	0.0167142	0.275483
1.745	-0.115801	0.275858
1.746	-0.142279	0.275858
1.747	-0.0539596	0.275858
1.748	0.109253	0.275858
1.749	0.172606	0.275858
1.75	0.106756	0.275858
1.751	-0.0272145	0.275858
1.752	-0.144816	0.275858
1.753	-0.136472	0.275858
1.754	0.0298548	0.275858
1.755	0.054039	0.275483
1.756	0.0785865	0.275858
1.757	0.00447466	0.275483
1.758	-0.0718857	0.275483
1.759	-0.0628478	0.275483
1.76	0.0592202	0.275858
1.761	0.16156	0.275858
1.762	-0.018301	0.275483
1.763	-0.116216	0.275483
1.764	-0.0774071	0.275483
1.765	0.024139	0.275483
1.766	0.0505449	0.275483
1.767	0.0472357	0.275483
1.768	0.00704255	0.275483
1.769	-0.0970563	0.275483
1.77	-0.0552178	0.275483
1.771	0.0979318	0.275483
1.772	0.139089	0.275483
1.773	0.0324829	0.275483
1.774	-0.190747	0.275483
1.775	-0.144696	0.275483
1.776	0.0312327	0.275858
1.777	0.157133	0.275483
1.778	0.142282	0.275483
1.779	-0.0514546	0.275858
1.78	-0.110302	0.275858
1.781	-0.0554969	0.275858
1.782	-0.00821502	0.275483
1.783	0.0419444	0.275858
1.784	0.0433834	0.275483
1.785	-0.0286819	0.275858
1.786	-0.0582069	0.275858
1.787	0.0741793	0.275858
1.788	0.0681532	0.275858
1.789	0.0200615	0.275858
1.79	-0.0158735	0.275858
1.791	-0.0990086	0.275858
1.792	-0.0916987	0.275483
1.793	0.011338	0.275858
1.794	0.127968	0.275483
1.795	0.0137345	0.275858
1.796	-0.0753768	0.275858
1.797	0.00321274	0.275858
1.798	0.104115	0.275858
1.799	0.000157449	0.275858
1.8	-0.00287011	0.275858
1.801	0.00879205	0.275858
1.802	-0.125399	0.275858
1.803	-0.150771	0.275858
1.804	0.0706898	0.275858
1.805	0.18536	0.275858
1.806	0.0944141	0.275858
1.807	-0.0387072	0.275858
1.808	-0.10784	0.275858
1.809	-0.0735463	0.275483
1.81	0.00668713	0.275858
1.811	0.0651927	0.275858
1.812	-0.0517122	0.275858
1.813	-0.0366674	0.275858
1.814	0.0674134	0.275858
1.815	0.11546	0.275858
1.816	0.0951521	0.275483
1.817	-0.0231077	0.275858
1.818	-0.177819	0.275858
1.819	-0.259229	0.275858
1.82	-0.0322561	0.275483
1.821	0.202766	0.275483
1.822	0.216533	0.275858
1.823	0.0721102	0.275483
1.824	-0.0336364	0.275858
1.825	-0.145961	0.275858
1.826	-0.0810364	0.275858
1.827	0.0446944	0.275858
1.828	0.0374329	0.275858
1.829	-0.0821063	0.275858
1.83	-0.0673632	0.275858
1.831	0.0542843	0.275858
1.832	0.0972734	0.275483
1.833	0.103628	0.275858
1.834	0.0307473	0.275858
1.835	-0.108591	0.275858
1.836	-0.144408	0.275858
1.837	0.0233921	0.275858
1.838	0.0703512	0.275858
1.839	0.0242544	0.275858
1.84	-0.00940467	0.275483
1.841	-0.0303401	0.275858
1.842	-0.0119329	0.275858
1.843	0.00722474	0.275483
1.844	0.0978363	0.275858
1.845	0.00698243	0.275483
1.846	-0.0784037	0.275858
1.847	-0.0371016	0.275483
1.848	-0.006049	0.275858
1.849	0.0479254	0.275858
1.85	0.0618479	0.275858
1.851	-0.0250378	0.275858
1.852	-0.110441	0.275858
1.853	-0.0792908	0.275858
1.854	0.113104	0.275858
1.855	0.166381	0.275858
1.856	0.0507453	0.275858
1.857	-0.131914	0.275858
1.858	-0.174041	0.275858
1.859	-0.0183916	0.275858
1.86	0.119379	0.275858
1.861	0.138073	0.275858
1.862	-0.0405421	0.275858
1.863	-0.0877996	0.275858
1.864	-0.032367	0.275858
1.865	0.0370952	0.275858
1.866	0.0423152	0.275858
1.867	0.0129145	0.275858
1.868	-0.0526353	0.275858
1.869	-0.101299	0.275858
1.87	0.00325204	0.275858
1.871	0.130214	0.275858
1.872	0.114377	0.275858
1.873	-0.0179279	0.275858
1.874	-0.0868122	0.275858
1.875	-0.0697146	0.275858
1.876	-0.0591917	0.275858
1.877	0.0318129	0.275858
1.878	0.055018	0.275858
1.879	-0.0363093	0.275858
1.88	-0.0525549	0.275858
1.881	0.0967521	0.275858
1.882	0.16726	0.275858
1.883	0.0372102	0.275858
1.884	-0.0566374	0.275858
1.885	-0.181249	0.275858
1.886	-0.233204	0.275858
1.887	0.0371516	0.275858
1.888	0.204259	0.275858
1.889	0.150125	0.275858
1.89	0.0403699	0.275858
1.891	-0.123634	0.275858
1.892	-0.128244	0.275858
1.893	0.0204944	0.275858
1.894	0.152331	0.275858
1.895	0.0364802	0.275858
1.896	-0.0767699	0.275858
1.897	-0.0866278	0.275858
1.898	-0.0578314	0.275858
1.899	0.00269823	0.275858
1.9	0.0561525	0.275858
1.901	0.0260691	0.275858
1.902	-0.00439496	0.275858
1.903	0.014909	0.275858
1.904	0.103322	0.275858
1.905	0.121925	0.275858
1.906	-0.0311506	0.275483
1.907	-0.215353	0.275858
1.908	-0.271877	0.275858
1.909	-0.0630047	0.275858
1.91	0.255601	0.275858
1.911	0.345187	0.275858
1.912	0.00093327	0.275858
1.913	-0.224233	0.275858
1.914	-0.09917	0.275858
1.915	0.0496603	0.275483
1.916	0.0651206	0.275858
1.917	0.0360411	0.275858
1.918	-0.0449968	0.275483
1.919	-0.167013	0.275483
1.92	-0.0401334	0.275483
1.921	0.146283	0.275483
1.922	0.146536	0.275483
1.923	0.0474212	0.275483
1.924	-0.0908623	0.275483
1.925	-0.144824	0.275858
1.926	-0.0633628	0.275483
1.927	0.116049	0.275483
1.928	0.139922	0.275483
1.929	-0.0598934	0.275483
1.93	-0.114786	0.275483
1.931	-0.0237918	0.275483
1.932	0.0563521	0.275483
1.933	0.0855677	0.275483
1.934	0.00640468	0.275483
1.935	-0.0711286	0.275483
1.936	-0.0760654	0.275858
1.937	0.0491265	0.275483
1.938	0.0626239	0.275483
1.939	0.017865	0.275483
1.94	-0.0160174	0.275483
1.941	-0.0462033	0.275483
1.942	-0.0816846	0.275483
1.943	0.0238867	0.275483
1.944	0.15985	0.275483
1.945	0.0444019	0.275483
1.946	-0.129361	0.275483
1.947	-0.112467	0.275483
1.948	0.0385666	0.275483
1.949	0.110655	0.275483
1.95	0.0787536	0.275483
1.951	-0.0472555	0.275483
1.952	-0.154082	0.275483
1.953	-0.0848581	0.275483
1.954	0.10022	0.275483
1.955	0.143342	0.275483
1.956	0.0378816	0.275483
1.957	-0.0656459	0.275483
1.958	-0.0389262	0.275483
1.959	0.0254292	0.275483
1.96	0.0283313	0.275483
1.961	0.00225355	0.275483
1.962	-0.177211	0.275483
1.963	-0.164311	0.275483
1.964	0.0761238	0.275483
1.965	0.264101	0.275483
1.966	0.246671	0.275483
1.967	0.066538	0.275483
1.968	-0.202642	0.275483
1.969	-0.367727	0.275483
1.97	-0.13736	0.275483
1.971	0.115087	0.275483
1.972	0.231199	0.275483
1.973	0.15361	0.275483
1.974	-0.0255217	0.275483
1.975	-0.121857	0.275483
1.976	-0.021195	0.275483
1.977	0.0843285	0.275483
1.978	0.00941737	0.275483
1.979	-0.177738	0.275483
1.98	-0.120545	0.275483
1.981	0.0779719	0.275483
1.982	0.173475	0.275483
1.983	0.139372	0.275483
1.984	-0.00132244	0.275483
1.985	-0.173541	0.275483
1.986	-0.172458	0.275483
1.987	0.060336	0.275483
1.988	0.117575	0.275483
1.989	0.038428	0.275483
1.99	-0.0679578	0.275483
1.991	-0.0526346	0.275483
1.992	0.0151907	0.275483
1.993	0.0660126	0.275483
1.994	0.167449	0.275483
1.995	-0.0537431	0.275483
1.996	-0.23627	0.275483
1.997	-0.0717446	0.275483
1.998	0.108011	0.275483
1.999	0.0902321	0.275483
2	0.0492789	0.275483
2.001	-0.0100069	0.275483
2.002	-0.0842037	0.275483
2.003	-0.0736984	0.275483
2.004	0.0578042	0.275483
2.005	0.128361	0.275483
2.006	0.0351677	0.275483
2.007	-0.10282	0.275483
2.008	-0.113012	0.275483
2.009	-0.037594	0.275483
2.01	0.0701102	0.275483
2.011	0.134472	0.275483
2.012	0.0207957	0.275483
2.013	-0.0587757	0.275483
2.014	-0.0892429	0.275483
2.015	0.00713913	0.275483
2.016	0.0567616	0.275483
2.017	0.012901	0.275483
2.018	0.0105356	0.275483
2.019	-0.0955968	0.275483
2.02	-0.0144434	0.275483
2.021	0.0938515	0.275483
2.022	0.0498126	0.275483
2.023	-0.0280743	0.275483
2.024	-0.0675874	0.275483
2.025	-0.0241014	0.275483
2.026	0.0247016	0.275483
2.027	0.0998764	0.275483
2.028	0.0265679	0.275483
2.029	-0.129616	0.275483
2.03	-0.0969303	0.275483
2.031	0.0115488	0.275483
2.032	0.0798931	0.275483
2.033	0.138028	0.275483
2.034	0.0907985	0.275483
2.035	-0.101986	0.275483
2.036	-0.189556	0.275483
2.037	-0.0132352	0.275483
2.038	0.0956644	0.275483
2.039	0.050477	0.275483
2.04	-0.027844	0.275483
2.041	-0.0690435	0.275483
2.042	-0.0167585	0.275483
2.043	0.0715807	0.275483
2.044	0.106662	0.275483
2.045	0.0464771	0.275483
2.046	-0.0430796	0.275483
2.047	-0.117086	0.275483
2.048	-0.0784409	0.275483
2.049	0.0374931	0.275483
2.05	0.0356429	0.275483
2.051	-0.0107918	0.275483
2.052	-0.0570186	0.275483
2.053	0.014807	0.275483
2.054	0.160542	0.275483
2.055	0.107658	0.275483
2.056	-0.0157107	0.275483
2.057	-0.092748	0.275483
2.058	-0.155478	0.275483
2.059	-0.160074	0.275483
2.06	0.00354451	0.275483
2.061	0.214446	0.275483
2.062	0.104833	0.275483
2.063	0.0218591	0.275483
2.064	0.0197487	0.275483
2.065	-0.0219968	0.275483
2.066	-0.0943414	0.275483
2.067	-0.0673199	0.275483
2.068	-0.075928	0.275483
2.069	-0.0494246	0.275483
2.07	0.121451	0.275483
2.071	0.178899	0.275483
2.072	0.0520106	0.275483
2.073	-0.084727	0.275483
2.074	-0.133544	0.275483
2.075	-0.0889321	0.275483
2.076	-0.0273898	0.275483
2.077	0.124391	0.275483
2.078	0.181653	0.275483
2.079	-0.0128825	0.275483
2.08	-0.130333	0.275483
2.081	-0.057524	0.275483
2.082	0.0360862	0.275483
2.083	0.00573268	0.275483
2.084	-0.0185608	0.275483
2.085	-0.0627432	0.275483
2.086	-0.0513721	0.275483
2.087	0.133303	0.275483
2.088	0.135729	0.275483
2.089	0.060661	0.275483
2.09	-0.0856773	0.275483
2.091	-0.180452	0.275483
2.092	-0.0932499	0.275483
2.093	0.0782106	0.275483
2.094	0.178326	0.275483
2.095	-0.0329555	0.275483
2.096	-0.131423	0.275483
2.097	-0.0293993	0.275483
2.098	0.0797266	0.275483
2.099	0.0884583	0.275483
2.1	0.0906069	0.275483
2.101	-0.0357208	0.275483
2.102	-0.171055	0.275483
2.103	-0.0585875	0.275483
2.104	0.0787077	0.275483
2.105	0.0691437	0.275483
2.106	-0.0584743	0.275483
2.107	-0.0738081	0.275483
2.108	0.0450722	0.275858
2.109	0.0796368	0.275483
2.11	0.0764169	0.275483
2.111	0.0553832	0.275483
2.112	-0.102617	0.275483
2.113	-0.134204	0.275483
2.114	-0.0175752	0.275858
2.115	0.0450243	0.275858
2.116	0.0651348	0.275858
2.117	0.0534303	0.275483
2.118	-0.0752159	0.275483
2.119	-0.179109	0.275483
2.12	0.131876	0.275483
2.121	0.272276	0.275483
2.122	0.0518372	0.275483
2.123	-0.170339	0.275483
2.124	-0.224407	0.275483
2.125	-0.16401	0.275483
2.126	0.0260116	0.275483
2.127	0.325137	0.275483
2.128	0.225974	0.275483
2.129	-0.104699	0.275483
2.13	-0.158763	0.275483
2.131	-0.0558734	0.275483
2.132	-0.0114934	0.275483
2.133	0.0128526	0.275483
2.134	-0.0193583	0.275483
2.135	-0.0645194	0.275483
2.136	0.006452	0.275483
2.137	0.179913	0.275483
2.138	0.136377	0.275483
2.139	0.00591772	0.275483
2.14	-0.159088	0.275483
2.141	-0.211005	0.275483
2.142	-0.0741874	0.275483
2.143	0.109075	0.275483
2.144	0.204252	0.275483
2.145	0.0699507	0.275483
2.146	-0.0880044	0.275483
2.147	-0.0852433	0.275483
2.148	0.0374771	0.275483
2.149	-0.0104741	0.275483
2.15	0.0374431	0.275483
2.151	-0.0059959	0.275483
2.152	-0.138143	0.275483
2.153	-0.0743812	0.275483
2.154	0.139458	0.275483
2.155	0.153544	0.275483
2.156	0.0139667	0.275483
2.157	-0.0963402	0.275483
2.158	-0.0808006	0.275483
2.159	0.0166989	0.275483
2.16	0.0838008	0.275483
2.161	-0.00625627	0.275483
2.162	-0.148799	0.275483
2.163	-0.0548973	0.275483
2.164	0.0668571	0.275483
2.165	0.13116	0.275483
2.166	0.136435	0.275483
2.167	0.0261944	0.275483
2.168	-0.128771	0.275483
2.169	-0.206611	0.275483
2.17	-0.100309	0.275483
2.171	0.0886635	0.275483
2.172	0.169901	0.275483
2.173	0.0688083	0.275483
2.174	-0.0174686	0.275483
2.175	-0.0789539	0.275483
2.176	-0.0309861	0.275483
2.177	0.0875498	0.275483
2.178	0.0216427	0.275483
2.179	-0.142308	0.275483
2.18	-0.137082	0.275483
2.181	0.105793	0.275483
2.182	0.203417	0.275483
2.183	0.0624286	0.275483
2.184	-0.0579796	0.275483
2.185	-0.191803	0.275483
2.186	-0.213767	0.275483
2.187	0.101705	0.275483
2.188	0.321999	0.275483
2.189	0.154391	0.275483
2.19	-0.114612	0.275483
2.191	-0.25365	0.275483
2.192	-0.126053	0.275483
2.193	0.101608	0.275483
2.194	0.165855	0.275483
2.195	0.0178074	0.275483
2.196	-0.0941724	0.275483
2.197	-0.056254	0.275483
2.198	0.0554875	0.275483
2.199	0.0862312	0.275483
2.2	0.0542549	0.275483
2.201	-0.00270434	0.275483
2.202	-0.14322	0.275483
2.203	-0.176192	0.275483
2.204	-0.0174132	0.275483
2.205	0.226361	0.275483
2.206	0.272817	0.275483
2.207	-0.031323	0.275483
2.208	-0.27358	0.275483
2.209	-0.178764	0.275483
2.21	0.0978962	0.275483
2.211	0.14439	0.275483
2.212	-0.0309997	0.275483
2.213	-0.0435201	0.275483
2.214	0.039154	0.275483
2.215	0.102091	0.275483
2.216	0.0857171	0.275483
2.217	-0.0587041	0.275483
2.218	-0.220334	0.275483
2.219	-0.176644	0.275483
2.22	0.0466766	0.275483
2.221	0.182993	0.275483
2.222	0.185458	0.275483
2.223	0.0554617	0.275483
2.224	-0.084672	0.275483
2.225	-0.117476	0.275483
2.226	-0.0365069	0.275483
2.227	0.030675	0.275483
2.228	-0.0437302	0.275483
2.229	-0.112259	0.275483
2.23	0.0140694	0.275483
2.231	0.136577	0.275483
2.232	0.140585	0.275483
2.233	0.0522241	0.275483
2.234	-0.0682669	0.275483
2.235	-0.150353	0.275483
2.236	-0.140105	0.275483
2.237	0.0672352	0.275483
2.238	0.116793	0.275483
2.239	0.054972	0.275483
2.24	-0.0255347	0.275483
2.241	-0.0916911	0.275483
2.242	-0.0060551	0.275483
2.243	0.0218041	0.275483
2.244	0.0973562	0.275483
2.245	0.101682	0.275483
2.246	-0.0743378	0.275483
2.247	-0.189044	0.275483
2.248	-0.126591	0.275483
2.249	0.0693072	0.275483
2.25	0.209672	0.275483
2.251	0.105597	0.275483
2.252	-0.0284016	0.275483
2.253	-0.138465	0.275483
2.254	-0.0477016	0.275483
2.255	0.00108717	0.275483
2.256	-0.0375753	0.275483
2.257	0.0352454	0.275483
2.258	0.101374	0.275858
2.259	0.0686611	0.275483
2.26	-0.0843335	0.275858
2.261	-0.0881044	0.275858
2.262	0.0131835	0.275858
2.263	-0.0926641	0.275858
2.264	0.00196702	0.275858
2.265	0.196	0.275858
2.266	0.2181	0.275483
2.267	-0.0191654	0.275858
2.268	-0.218362	0.275483
2.269	-0.246383	0.275483
2.27	-0.190386	0.275858
2.271	0.177459	0.275858
2.272	0.291454	0.275858
2.273	0.129465	0.275858
2.274	0.0301772	0.275858
2.275	-0.0984036	0.275483
2.276	-0.149893	0.275858
2.277	-0.0810361	0.275858
2.278	0.0642844	0.275858
2.279	0.0192506	0.275858
2.28	-0.0938791	0.275858
2.281	-0.0745158	0.275858
2.282	0.062005	0.275858
2.283	0.210728	0.275483
2.284	0.201311	0.275858
2.285	-0.0107685	0.275858
2.286	-0.196265	0.275858
2.287	-0.229362	0.275858
2.288	-0.0773412	0.275858
2.289	0.0398126	0.275858
2.29	0.120106	0.275858
2.291	0.135811	0.275858
2.292	0.0318367	0.275858
2.293	-0.0636394	0.275858
2.294	-0.0122118	0.275858
2.295	0.149227	0.275858
2.296	-0.00658839	0.275858
2.297	-0.237851	0.275858
2.298	-0.199921	0.275858
2.299	0.0535422	0.275858
2.3	0.20158	0.275858
2.301	0.194597	0.275858
2.302	0.0028549	0.275483
2.303	-0.217674	0.275858
2.304	-0.12223	0.275858
2.305	0.125663	0.275483
2.306	0.219818	0.275858
2.307	-0.00435617	0.275858
2.308	-0.187198	0.275483
2.309	-0.215422	0.275483
2.31	0.000698453	0.275483
2.311	0.184361	0.275858
2.312	0.148056	0.275858
2.313	-0.00986386	0.275483
2.314	-0.0715842	0.275483
2.315	-0.0639933	0.275858
2.316	0.0105024	0.275483
2.317	0.058866	0.275858
2.318	0.0169657	0.275483
2.319	-0.070984	0.275858
2.32	-0.130186	0.275483
2.321	0.052733	0.275483
2.322	0.120606	0.275483
2.323	0.0415218	0.275483
2.324	-0.0390536	0.275483
2.325	-0.0839801	0.275483
2.326	-0.0218964	0.275483
2.327	0.0462369	0.275483
2.328	0.118007	0.275483
2.329	0.0173312	0.275483
2.33	-0.0863414	0.275858
2.331	-0.0722049	0.275483
2.332	-0.0263622	0.275483
2.333	-0.0149456	0.275483
2.334	-0.00929416	0.275483
2.335	0.0515844	0.275483
2.336	0.0560756	0.275858
2.337	0.056529	0.275483
2.338	0.105257	0.275483
2.339	0.0487009	0.275483
2.34	-0.10636	0.275483
2.341	-0.234418	0.275483
2.342	-0.221121	0.275483
2.343	-0.0590214	0.275483
2.344	0.203172	0.275483
2.345	0.418186	0.275483
2.346	0.249632	0.275483
2.347	-0.066377	0.275483
2.348	-0.294262	0.275483
2.349	-0.249832	0.275483
2.35	-0.218577	0.275483
2.351	-0.0386228	0.275483
2.352	0.276179	0.275483
2.353	0.233584	0.275858
2.354	0.068675	0.275858
2.355	0.0106072	0.275483
2.356	-0.0840395	0.275483
2.357	-0.102428	0.275483
2.358	-0.0489627	0.275483
2.359	-0.0562758	0.275858
2.36	0.0104171	0.275858
2.361	0.11432	0.275858
2.362	0.0834191	0.275483
2.363	-0.114803	0.275483
2.364	-0.183779	0.275483
2.365	0.0410374	0.275483
2.366	0.205112	0.275483
2.367	0.178101	0.275483
2.368	-0.00117856	0.275858
2.369	-0.180246	0.275483
2.37	-0.169969	0.275483
2.371	-0.014059	0.275483
2.372	0.0285631	0.275483
2.373	0.0418686	0.275858
2.374	0.0379658	0.275858
2.375	0.0640528	0.275858
2.376	0.0411791	0.275858
2.377	0.0321903	0.275858
2.378	0.0742171	0.275858
2.379	-0.0520569	0.275858
2.38	-0.190323	0.275858
2.381	-0.180277	0.275858
2.382	-0.0229368	0.275858
2.383	0.11886	0.275858
2.384	0.187085	0.275858
2.385	0.20065	0.275858
2.386	0.0277743	0.275858
2.387	-0.152646	0.275858
2.388	-0.142604	0.275858
2.389	-0.0891906	0.275858
2.39	-0.0675158	0.275858
2.391	0.0258425	0.275858
2.392	0.0741499	0.275858
2.393	0.0793715	0.275858
2.394	0.162735	0.275858
2.395	0.071131	0.275858
2.396	-0.139562	0.275858
2.397	-0.150985	0.275858
2.398	-0.155871	0.275858
2.399	-0.0158721	0.275858
2.4	0.173772	0.275858
2.401	0.263299	0.275858
2.402	0.0730826	0.275858
2.403	-0.206924	0.275858
2.404	-0.227023	0.275858
2.405	-0.07351	0.275858
2.406	0.0687318	0.275858
2.407	0.140343	0.275858
2.408	0.126087	0.275483
2.409	0.0555785	0.275858
2.41	-0.0309761	0.275858
2.411	-0.099853	0.275858
2.412	-0.156513	0.275858
2.413	-0.11632	0.275483
2.414	0.0972498	0.275483
2.415	0.166523	0.275483
2.416	0.12035	0.275483
2.417	0.0524846	0.275483
2.418	-0.0871737	0.275483
2.419	-0.170765	0.275483
2.42	-0.169705	0.275483
2.421	0.0185309	0.275483
2.422	0.172504	0.275483
2.423	0.124629	0.275483
2.424	0.0475592	0.275483
2.425	-0.0756726	0.275483
2.426	-0.0960917	0.275483
2.427	-0.0286922	0.275483
2.428	0.0760888	0.275483
2.429	0.0411848	0.275483
2.43	-0.0353109	0.275483
2.431	-0.102671	0.275483
2.432	-0.0475521	0.275483
2.433	0.0553341	0.275483
2.434	0.128712	0.275483
2.435	0.0957576	0.275483
2.436	-0.0615847	0.275483
2.437	-0.139534	0.275483
2.438	0.00772893	0.275483
2.439	0.0425907	0.275483
2.44	0.0347186	0.275483
2.441	-0.104074	0.275483
2.442	-0.0738208	0.275483
2.443	0.0950391	0.275483
2.444	0.150834	0.275858
2.445	0.171443	0.275483
2.446	-0.0584346	0.275858
2.447	-0.317106	0.275858
2.448	-0.225303	0.275858
2.449	0.102177	0.275483
2.45	0.19387	0.275858
2.451	0.239437	0.275858
2.452	0.082281	0.275858
2.453	-0.188651	0.275483
2.454	-0.179611	0.275858
2.455	0.0245377	0.275858
2.456	0.0308509	0.275858
2.457	-0.0159331	0.275858
2.458	-0.0400257	0.275858
2.459	-0.0158319	0.275858
2.46	0.107728	0.275483
2.461	0.159416	0.275858
2.462	0.0135484	0.275483
2.463	-0.192228	0.275483
2.464	-0.109433	0.275858
2.465	0.0546607	0.275483
2.466	0.083629	0.275483
2.467	0.0577911	0.275483
2.468	0.00510375	0.275858
2.469	-0.1232	0.275483
2.47	-0.19845	0.275483
2.471	0.0530197	0.275483
2.472	0.273463	0.275858
2.473	0.236658	0.275483
2.474	-0.0537296	0.275483
2.475	-0.317038	0.275483
2.476	-0.180953	0.275483
2.477	0.0521908	0.275483
2.478	0.144322	0.275483
2.479	0.0315681	0.275483
2.48	-0.0240081	0.275483
2.481	0.0560337	0.275483
2.482	0.0660688	0.275483
2.483	0.0040787	0.275483
2.484	-0.00342991	0.275483
2.485	-0.069329	0.275483
2.486	-0.146756	0.275483
2.487	-0.120523	0.275483
2.488	0.083501	0.275483
2.489	0.140955	0.275483
2.49	0.116834	0.275483
2.491	0.100925	0.275483
2.492	0.00291303	0.275483
2.493	-0.139654	0.275483
2.494	-0.182546	0.275858
2.495	-0.0791092	0.275483
2.496	-0.049913	0.275483
2.497	0.0953844	0.275483
2.498	0.207077	0.275858
2.499	0.197077	0.275483
2.5	0.0178191	0.275483
2.501	-0.119989	0.275483
2.502	-0.224867	0.275483
2.503	-0.240395	0.275483
2.504	-0.00598242	0.275858
2.505	0.216271	0.275483
2.506	0.236936	0.275483
2.507	0.164221	0.275858
2.508	-0.0410916	0.275483
2.509	-0.274844	0.275858
2.51	-0.205672	0.275858
2.511	0.0726293	0.275858
2.512	0.0873701	0.275483
2.513	0.0160331	0.275483
2.514	0.0408548	0.275483
2.515	0.0890059	0.275483
2.516	0.024388	0.275483
2.517	-0.0283236	0.275483
2.518	-0.0234455	0.275483
2.519	-0.0976098	0.275483
2.52	-0.14374	0.275483
2.521	0.0619082	0.275483
2.522	0.119172	0.275483
2.523	0.0401074	0.275483
2.524	0.0539744	0.275858
2.525	0.00612412	0.275483
2.526	-0.0877357	0.275858
2.527	-0.068055	0.275858
2.528	0.0433966	0.275483
2.529	-0.0178431	0.275858
2.53	-0.0277792	0.275483
2.531	0.0485153	0.275858
2.532	0.0705549	0.275858
2.533	0.0180875	0.275858
2.534	-0.00268275	0.275858
2.535	-0.052122	0.275858
2.536	-0.132915	0.275858
2.537	-0.0624774	0.275858
2.538	0.140593	0.275858
2.539	0.181644	0.275858
2.54	-0.00570802	0.275483
2.541	-0.178717	0.275483
2.542	-0.0932422	0.275483
2.543	0.078012	0.275483
2.544	0.14113	0.275858
2.545	0.105816	0.275858
2.546	-0.0796089	0.275858
2.547	-0.246449	0.275483
2.548	-0.143954	0.275858
2.549	0.0798058	0.275858
2.55	0.228628	0.275858
2.551	0.195108	0.275858
2.552	0.00189998	0.275483
2.553	-0.221904	0.275858
2.554	-0.0911269	0.275858
2.555	0.0399807	0.275483
2.556	-0.0119037	0.275858
2.557	-0.0444103	0.275483
2.558	0.0644779	0.275858
2.559	0.0566267	0.275483
2.56	-0.0442967	0.275483
2.561	0.0852456	0.275483
2.562	0.1026	0.275483
2.563	-0.100262	0.275483
2.564	-0.105334	0.275483
2.565	-0.0660059	0.275483
2.566	-0.0127504	0.275483
2.567	0.0381969	0.275483
2.568	0.100598	0.275483
2.569	0.0642524	0.275483
2.57	-0.0405084	0.275483
2.571	0.0292157	0.275483
2.572	0.00862101	0.275483
2.573	-0.0509045	0.275483
2.574	-0.0958618	0.275483
2.575	-0.0732341	0.275483
2.576	-0.00103868	0.275483
2.577	0.06734	0.275483
2.578	0.144075	0.275483
2.579	0.0432571	0.275483
2.58	-0.0435519	0.275483
2.581	-0.028009	0.275483
2.582	-0.0186391	0.275483
2.583	-0.041133	0.275483
2.584	-0.00758685	0.275483
2.585	-0.00420852	0.275483
2.586	-0.0768009	0.275483
2.587	-0.0594143	0.275483
2.588	0.124105	0.275483
2.589	0.144482	0.275483
2.59	0.0336512	0.275483
2.591	-0.0461062	0.275483
2.592	-0.117063	0.275483
2.593	-0.0643486	0.275483
2.594	0.0440194	0.275483
2.595	0.110893	0.275483
2.596	-0.0155034	0.275483
2.597	-0.144057	0.275483
2.598	-0.055012	0.275483
2.599	0.102156	0.275483
2.6	0.12121	0.275483
2.601	0.0729301	0.275483
2.602	-0.0498672	0.275483
2.603	-0.200258	0.275483
2.604	-0.0227833	0.275483
2.605	0.159158	0.275483
2.606	0.0977525	0.275483
2.607	-0.0398442	0.275483
2.608	-0.175504	0.275483
2.609	-0.141031	0.275483
2.61	0.0549953	0.275483
2.611	0.239078	0.275483
2.612	0.200054	0.275483
2.613	-0.0823221	0.275483
2.614	-0.228699	0.275483
2.615	-0.131311	0.275483
2.616	0.0837706	0.275483
2.617	0.113896	0.275483
2.618	0.0630597	0.275483
2.619	-0.0713032	0.275483
2.62	-0.155353	0.275483
2.621	0.0491648	0.275483
2.622	0.166848	0.275483
2.623	0.0758926	0.275483
2.624	-0.0870012	0.275483
2.625	-0.165901	0.275483
2.626	0.000753433	0.275483
2.627	0.086695	0.275483
2.628	0.124911	0.275483
2.629	-0.0493527	0.275483
2.63	-0.129967	0.275483
2.631	-0.0311745	0.275483
2.632	0.0532817	0.275483
2.633	0.0800135	0.275483
2.634	0.0589417	0.275483
2.635	-0.0416589	0.27511
2.636	-0.109572	0.275483
2.637	-0.0421297	0.275483
2.638	0.0758289	0.275483
2.639	0.106189	0.27511
2.64	0.0410189	0.27511
2.641	-0.0855988	0.27511
2.642	-0.141562	0.275483
2.643	-0.0394981	0.275483
2.644	0.113653	0.27511
2.645	0.152772	0.27511
2.646	-0.0181055	0.27511
2.647	-0.108244	0.275483
2.648	-0.0661344	0.275483
2.649	0.00964842	0.27511
2.65	0.0348955	0.27511
2.651	0.034411	0.27511
2.652	0.0155314	0.27511
2.653	-0.0463247	0.27511
2.654	0.069166	0.27511
2.655	0.0515626	0.27511
2.656	-0.0564796	0.27511
2.657	-0.0922529	0.275483
2.658	-0.0918432	0.27511
2.659	-0.0613683	0.275483
2.66	0.0855241	0.27511
2.661	0.258635	0.27511
2.662	0.157704	0.27511
2.663	-0.14065	0.275483
2.664	-0.226625	0.27511
2.665	-0.133557	0.275483
2.666	0.0158636	0.275483
2.667	0.128722	0.275483
2.668	0.118043	0.275483
2.669	0.0442268	0.275483
2.67	-0.0656629	0.275483
2.671	0.003004	0.275483
2.672	0.00887122	0.27511
2.673	-0.0620652	0.275483
2.674	-0.114701	0.275483
2.675	-0.0576981	0.27511
2.676	0.0853551	0.275483
2.677	0.186745	0.275483
2.678	0.18093	0.27511
2.679	-0.077287	0.27511
2.68	-0.231549	0.27511
2.681	-0.184308	0.275483
2.682	0.0075842	0.27511
2.683	0.128481	0.27511
2.684	0.198633	0.27511
2.685	0.107478	0.27511
2.686	-0.128734	0.27511
2.687	-0.153708	0.27511
2.688	-0.0067729	0.27511
2.689	0.0011761	0.275483
2.69	0.027187	0.27511
2.691	0.0507918	0.275483
2.692	4.04063e-05	0.27511
2.693	-0.0100282	0.275483
2.694	0.0378344	0.275483
2.695	0.0827789	0.275483
2.696	-0.0932717	0.275483
2.697	-0.133112	0.275483
2.698	-0.0396446	0.275483
2.699	0.0835232	0.275483
2.7	0.130426	0.27511
2.701	0.0834431	0.275483
2.702	-0.0445567	0.275483
2.703	-0.135827	0.275483
2.704	-0.0831923	0.27511
2.705	0.036776	0.27511
2.706	0.0730113	0.275483
2.707	0.0347891	0.275483
2.708	-0.00296119	0.275483
2.709	-0.0744117	0.275483
2.71	0.0164626	0.275483
2.711	0.124896	0.275483
2.712	0.0620776	0.275483
2.713	-0.145494	0.275483
2.714	-0.156242	0.275483
2.715	-0.0255815	0.275483
2.716	0.111244	0.275483
2.717	0.183995	0.275483
2.718	0.0471821	0.275483
2.719	-0.128658	0.27511
2.72	-0.167589	0.275483
2.721	0.0228408	0.275483
2.722	0.0983695	0.275483
2.723	0.0552111	0.27511
2.724	-0.0279228	0.275483
2.725	-0.0403951	0.275483
2.726	-0.0117522	0.275483
2.727	0.0334285	0.275483
2.728	0.0817303	0.275483
2.729	-0.0634493	0.275483
2.73	-0.115906	0.275483
2.731	-0.0350399	0.275483
2.732	0.0686741	0.275483
2.733	0.0945484	0.275483
2.734	0.0749977	0.275483
2.735	-0.0294199	0.275483
2.736	-0.151036	0.275483
2.737	-0.0172033	0.27511
2.738	0.134042	0.27511
2.739	0.0276423	0.275483
2.74	-0.0607489	0.275483
2.741	-0.0851875	0.27511
2.742	-0.108366	0.275483
2.743	0.0130395	0.275483
2.744	0.2206	0.275483
2.745	0.194923	0.275483
2.746	-0.0945123	0.275483
2.747	-0.197175	0.275483
2.748	-0.0784352	0.275483
2.749	0.0445075	0.275483
2.75	0.07612	0.275483
2.751	0.0381962	0.275483
2.752	-0.0664274	0.275483
2.753	-0.0933567	0.275483
2.754	0.0477168	0.275483
2.755	0.124906	0.275483
2.756	0.114778	0.275483
2.757	0.00119696	0.275483
2.758	-0.154732	0.275483
2.759	-0.187468	0.275483
2.76	-0.0346577	0.275483
2.761	0.163143	0.275483
2.762	0.162276	0.275483
2.763	-0.0148768	0.275483
2.764	-0.0750932	0.275483
2.765	-0.038694	0.275483
2.766	-0.0123454	0.275483
2.767	0.0213696	0.275483
2.768	0.0201255	0.275483
2.769	-0.0374381	0.275483
2.77	-0.0800845	0.275483
2.771	0.0633663	0.275483
2.772	0.0901805	0.275483
2.773	0.0248392	0.275483
2.774	-0.00196012	0.275483
2.775	-0.0730562	0.275483
2.776	-0.0873442	0.275483
2.777	-0.01531	0.275483
2.778	0.116881	0.275483
2.779	0.0607679	0.275483
2.78	-0.0379941	0.275483
2.781	-0.0678141	0.275483
2.782	-0.0215877	0.275483
2.783	0.0374463	0.275483
2.784	0.0738943	0.275483
2.785	-0.0247212	0.275483
2.786	-0.118576	0.275483
2.787	-0.0450284	0.275483
2.788	0.143675	0.275483
2.789	0.121352	0.275483
2.79	-0.0260583	0.275483
2.791	-0.0907345	0.275483
2.792	-0.132753	0.275483
2.793	-0.0529208	0.275483
2.794	0.106409	0.275483
2.795	0.149471	0.275483
2.796	0.00388785	0.275483
2.797	-0.0979387	0.275483
2.798	-0.0496649	0.275483
2.799	0.059807	0.275483
2.8	0.0478159	0.275483
2.801	0.00560271	0.275483
2.802	-0.0604249	0.275483
2.803	-0.133521	0.275483
2.804	0.011404	0.275483
2.805	0.117485	0.275483
2.806	0.105987	0.275483
2.807	0.00295975	0.275483
2.808	-0.107177	0.275483
2.809	-0.07464	0.275483
2.81	0.00987579	0.275483
2.811	0.113336	0.275483
2.812	0.0402044	0.275483
2.813	-0.100169	0.275483
2.814	-0.0738123	0.275483
2.815	0.0347885	0.275483
2.816	0.0834103	0.275483
2.817	0.0722032	0.275483
2.818	-0.0435513	0.275483
2.819	-0.144669	0.275483
2.82	-0.121893	0.275483
2.821	0.141536	0.275483
2.822	0.200396	0.275483
2.823	0.0526915	0.275483
2.824	-0.0961958	0.275483
2.825	-0.163874	0.275483
2.826	-0.114384	0.275483
2.827	0.0559045	0.275483
2.828	0.212414	0.275483
2.829	0.0437986	0.275483
2.83	-0.121342	0.275483
2.831	-0.0996225	0.275483
2.832	0.0227358	0.275483
2.833	0.0980673	0.275483
2.834	0.0855671	0.275483
2.835	0.0203424	0.275483
2.836	-0.188189	0.275483
2.837	-0.151378	0.275483
2.838	0.147109	0.275483
2.839	0.168442	0.275483
2.84	-0.0411282	0.275483
2.841	-0.117098	0.275483
2.842	-0.00642042	0.275483
2.843	0.0391263	0.275483
2.844	0.0562658	0.275483
2.845	0.0606854	0.275483
2.846	-0.0854371	0.275483
2.847	-0.0962391	0.275483
2.848	0.00187561	0.275483
2.849	0.091155	0.275483
2.85	0.0670932	0.275483
2.851	-0.00732167	0.275483
2.852	-0.0876487	0.275483
2.853	-0.110178	0.275483
2.854	0.016671	0.275483
2.855	0.090907	0.275483
2.856	0.121696	0.275483
2.857	0.0831963	0.275483
2.858	-0.087426	0.275483
2.859	-0.174509	0.275483
2.86	-0.1048	0.275483
2.861	0.100147	0.275483
2.862	0.142849	0.275483
2.863	-0.0457743	0.275483
2.864	-0.0301231	0.275483
2.865	0.0434916	0.275483
2.866	0.0469858	0.275483
2.867	0.0101735	0.275483
2.868	-0.0513901	0.275483
2.869	-0.126914	0.275483
2.87	-0.0911497	0.275483
2.871	0.118408	0.275483
2.872	0.158014	0.275483
2.873	0.0431839	0.275483
2.874	-0.0927032	0.275483
2.875	-0.106744	0.275483
2.876	-0.0102488	0.275483
2.877	0.0810037	0.275483
2.878	0.109344	0.275483
2.879	-0.0527455	0.275483
2.88	-0.14138	0.275483
2.881	-0.0712482	0.275483
2.882	0.0533456	0.275483
2.883	0.109735	0.275483
2.884	0.129969	0.275483
2.885	0.0222721	0.275483
2.886	-0.164722	0.275483
2.887	-0.108482	0.275483
2.888	0.0608731	0.275483
2.889	0.0459424	0.275483
2.89	-0.0100679	0.275483
2.891	-0.0464058	0.275483
2.892	-0.0428866	0.275483
2.893	0.0687109	0.275483
2.894	0.13564	0.275483
2.895	0.0989041	0.275483
2.896	-0.08854	0.275483
2.897	-0.175376	0.275483
2.898	-0.154904	0.275483
2.899	0.0214268	0.275483
2.9	0.142075	0.275483
2.901	0.157596	0.275483
2.902	0.0736294	0.275483
2.903	-0.10831	0.275483
2.904	-0.0871554	0.275483
2.905	-0.0387727	0.275483
2.906	-0.0192995	0.275483
2.907	0.00752201	0.275483
2.908	0.0314554	0.275483
2.909	0.0115187	0.275858
2.91	0.0164049	0.275858
2.911	0.129719	0.275483
2.912	0.01874	0.275483
2.913	-0.16168	0.275483
2.914	-0.123414	0.275483
2.915	0.0344401	0.275483
2.916	0.0956292	0.275858
2.917	0.0624313	0.275483
2.918	0.0164764	0.275483
2.919	-0.0297451	0.275858
2.92	-0.0553568	0.275483
2.921	0.00261624	0.275483
2.922	-0.00063379	0.275483
2.923	-0.00157402	0.275483
2.924	0.00797458	0.275483
2.925	0.00983465	0.275483
2.926	-0.00986787	0.275483
2.927	0.0080839	0.275483
2.928	0.0791603	0.275858
2.929	-0.0369799	0.275483
2.93	-0.102765	0.275483
2.931	-0.0292942	0.275858
2.932	0.0611175	0.275483
2.933	0.0827081	0.275483
2.934	0.0599463	0.275483
2.935	-0.0537578	0.275483
2.936	-0.116734	0.275483
2.937	-0.0313235	0.275483
2.938	0.0603743	0.275483
2.939	0.0527978	0.275483
2.94	0.0119374	0.275483
2.941	-0.0445608	0.275483
2.942	-0.0970004	0.275483
2.943	0.022435	0.275483
2.944	0.170479	0.275483
2.945	0.170065	0.275483
2.946	-0.0656748	0.275483
2.947	-0.227816	0.275483
2.948	-0.213441	0.275483
2.949	-0.028531	0.275483
2.95	0.134055	0.275483
2.951	0.258526	0.275483
2.952	0.11648	0.275483
2.953	-0.0993137	0.275483
2.954	-0.0858928	0.275483
2.955	-0.0254266	0.275483
2.956	-0.0403062	0.275483
2.957	-0.0539835	0.275483
2.958	-0.031365	0.275483
2.959	-0.0160111	0.275483
2.96	0.0800538	0.275858
2.961	0.168096	0.275483
2.962	0.0409343	0.275483
2.963	-0.141054	0.275858
2.964	-0.131777	0.275483
2.965	0.0178954	0.275483
2.966	0.084533	0.275858
2.967	0.0835083	0.275483
2.968	0.0390049	0.275483
2.969	-0.0663572	0.275483
2.97	-0.15167	0.275483
2.971	-0.0487861	0.275483
2.972	0.042388	0.275483
2.973	0.11828	0.275858
2.974	0.0828404	0.275483
2.975	-0.0303784	0.275483
2.976	-0.0772796	0.275858
2.977	0.00023176	0.275483
2.978	0.125712	0.275483
2.979	-0.0276462	0.275858
2.98	-0.141818	0.275858
2.981	-0.11203	0.275483
2.982	-0.021976	0.275858
2.983	0.116242	0.275483
2.984	0.178196	0.275858
2.985	0.110476	0.275858
2.986	-0.0808387	0.275483
2.987	-0.154321	0.275858
2.988	-0.0565414	0.275483
2.989	0.0119163	0.275483
2.99	-0.0229334	0.275858
2.991	0.00264135	0.275483
2.992	0.067926	0.275483
2.993	0.0466752	0.275483
2.994	0.0615344	0.275483
2.995	0.045229	0.275483
2.996	-0.127262	0.275483
2.997	-0.132653	0.275483
2.998	0.0350173	0.275483
2.999	0.106255	0.275483
3	0.047184	0.275483
3.001	-0.0374948	0.275483
3.002	-0.0453729	0.275483
3.003	-0.0752864	0.275483
3.004	0.0342279	0.275483
3.005	0.113678	0.275483
3.006	0.0578537	0.275483
3.007	-0.0788957	0.275483
3.008	-0.113321	0.275483
3.009	-0.0487628	0.275483
3.01	0.117138	0.275483
3.011	0.16586	0.275483
3.012	-0.030368	0.275483
3.013	-0.176152	0.275483
3.014	-0.12558	0.275483
3.015	0.0777049	0.275483
3.016	0.132693	0.275483
3.017	0.0519458	0.275483
3.018	0.0373899	0.275483
3.019	-0.0679736	0.275483
3.02	-0.130517	0.275483
3.021	-0.0111254	0.275483
3.022	0.0645919	0.275483
3.023	0.0584597	0.275483
3.024	0.014083	0.275483
3.025	-0.0866923	0.275483
3.026	-0.0229812	0.275483
3.027	0.0756132	0.275483
3.028	0.09899	0.275483
3.029	-0.0521437	0.275483
3.03	-0.117374	0.275483
3.031	-0.0592604	0.275483
3.032	0.0539815	0.275483
3.033	0.109296	0.275483
3.034	0.0785065	0.275483
3.035	-0.0247563	0.275483
3.036	-0.179381	0.275483
3.037	-0.0730199	0.275483
3.038	0.0907387	0.275483
3.039	0.110117	0.275483
3.04	0.0445966	0.275483
3.041	-0.050882	0.275483
3.042	-0.0942399	0.275483
3.043	0.00298719	0.275483
3.044	0.0596373	0.275483
3.045	0.030527	0.275483
3.046	-0.0457298	0.275483
3.047	-0.0661802	0.275483
3.048	0.0200879	0.275483
3.049	0.0769819	0.275483
3.05	0.0429489	0.275483
3.051	-0.00837276	0.275483
3.052	-0.0750347	0.275483
3.053	-0.118609	0.275483
3.054	0.012812	0.275483
3.055	0.105416	0.275483
3.056	0.119322	0.275483
3.057	0.0105226	0.275483
3.058	-0.0897572	0.275483
3.059	-0.0741459	0.275858
3.06	-0.00185964	0.275483
3.061	0.0373578	0.275483
3.062	0.0174452	0.275483
3.063	-0.0914948	0.275483
3.064	-0.0435938	0.275483
3.065	0.102027	0.275483
3.066	0.131343	0.275483
3.067	0.0765974	0.275858
3.068	-0.0364559	0.275483
3.069	-0.184976	0.275483
3.07	-0.172471	0.275483
3.071	0.0531977	0.275483
3.072	0.154915	0.275858
3.073	0.102926	0.275858
3.074	-0.0177587	0.275483
3.075	-0.0845473	0.275483
3.076	-0.0574031	0.275483
3.077	0.0413448	0.275483
3.078	0.0881335	0.275483
3.079	-0.0441145	0.275483
3.08	-0.0809924	0.275483
3.081	-0.00972094	0.275483
3.082	0.0846473	0.275483
3.083	0.105586	0.275483
3.084	-0.0214352	0.275483
3.085	-0.20285	0.275483
3.086	-0.116332	0.275483
3.087	0.112892	0.275483
3.088	0.157965	0.275483
3.089	0.0994362	0.275483
3.09	-0.000544633	0.275483
3.091	-0.112034	0.275858
3.092	-0.137084	0.275483
3.093	-0.0170534	0.275483
3.094	0.10264	0.275483
3.095	0.0648687	0.275483
3.096	-0.0529055	0.275483
3.097	-0.0700561	0.275483
3.098	0.017589	0.275483
3.099	0.0847089	0.275483
3.1	0.0722769	0.275483
3.101	-0.00675033	0.275483
3.102	-0.0900708	0.275483
3.103	-0.135248	0.275483
3.104	0.00355968	0.275483
3.105	0.138202	0.275483
3.106	0.0913249	0.275483
3.107	-0.027814	0.275483
3.108	-0.100265	0.275483
3.109	-0.0880046	0.275483
3.11	0.0192292	0.275483
3.111	0.166686	0.275483
3.112	0.0411761	0.275483
3.113	-0.100616	0.275483
3.114	-0.0856126	0.275483
3.115	0.00249582	0.275483
3.116	0.0606838	0.275483
3.117	0.0725516	0.275483
3.118	0.013686	0.275483
3.119	-0.0996873	0.275483
3.12	-0.107833	0.275483
3.121	0.0220052	0.275483
3.122	0.117083	0.275483
3.123	0.0654961	0.275483
3.124	-0.0152447	0.275483
3.125	-0.0183843	0.275483
3.126	-0.0395732	0.275483
3.127	-0.0469748	0.275483
3.128	0.0450488	0.275483
3.129	-0.0139288	0.275483
3.13	-0.095167	0.275483
3.131	-0.0190133	0.275483
3.132	0.126853	0.275483
3.133	0.131781	0.275483
3.134	0.0222745	0.275483
3.135	-0.100959	0.275483
3.136	-0.169428	0.275483
3.137	-0.0370638	0.275483
3.138	0.119112	0.275483
3.139	0.104738	0.275483
3.14	-0.00403327	0.275483
3.141	-0.088821	0.275483
3.142	-0.0592847	0.275483
3.143	0.0285759	0.275483
3.144	0.106081	0.275483
3.145	0.0640074	0.275483
3.146	-0.0955174	0.275483
3.147	-0.108704	0.275483
3.148	0.00367351	0.275483
3.149	0.0715917	0.275483
3.15	0.0618944	0.275483
3.151	-0.00179606	0.275483
3.152	-0.0704733	0.27511
3.153	-0.0916368	0.275483
3.154	0.0813864	0.275483
3.155	0.110346	0.275483
3.156	0.0104586	0.275483
3.157	-0.0715653	0.275483
3.158	-0.0824756	0.275483
3.159	-0.0446659	0.275483
3.16	0.0359382	0.275483
3.161	0.152494	0.275483
3.162	0.0430307	0.275483
3.163	-0.119837	0.275483
3.164	-0.107156	0.275483
3.165	0.0198828	0.275483
3.166	0.089637	0.275483
3.167	0.103833	0.275483
3.168	0.0114032	0.275483
3.169	-0.130978	0.275483
3.17	-0.161246	0.275483
3.171	0.0432195	0.275483
3.172	0.141312	0.275483
3.173	0.0719161	0.275483
3.174	-0.0102579	0.275483
3.175	0.0275908	0.275483
3.176	-0.0738801	0.275483
3.177	-0.143146	0.275483
3.178	0.0451495	0.275483
3.179	0.0446575	0.275483
3.18	0.0376321	0.275483
3.181	-0.00165941	0.275483
3.182	0.0274644	0.275483
3.183	0.0261554	0.275483
3.184	-0.00837307	0.275483
3.185	-0.0372638	0.275483
3.186	-0.118566	0.275483
3.187	-0.0143684	0.275483
3.188	0.119919	0.275483
3.189	0.07324	0.275483
3.19	-0.00844769	0.275483
3.191	-0.0597578	0.275483
3.192	-0.0716724	0.275483
3.193	-0.016097	0.275483
3.194	0.10778	0.275483
3.195	0.0780838	0.275483
3.196	-0.0953491	0.275483
3.197	-0.100396	0.275483
3.198	-0.000668321	0.275483
3.199	0.0799302	0.275483
3.2	0.102902	0.275483
3.201	0.0299757	0.275483
3.202	-0.0922526	0.275483
3.203	-0.175423	0.275483
3.204	-0.0141218	0.275483
3.205	0.0941177	0.275483
3.206	0.119452	0.275483
3.207	0.0781536	0.275483
3.208	-0.0331255	0.275483
3.209	-0.103525	0.275483
3.21	-0.0483119	0.275483
3.211	0.0365621	0.275483
3.212	-0.0401536	0.275483
3.213	0.03952	0.275483
3.214	-0.0427002	0.275483
3.215	-0.00531666	0.275483
3.216	0.0434981	0.275483
3.217	0.0695078	0.275483
3.218	0.0707944	0.275483
3.219	-0.00260592	0.275483
3.22	-0.122154	0.275483
3.221	-0.133078	0.275483
3.222	0.034967	0.275483
3.223	0.106688	0.275483
3.224	0.0305551	0.275483
3.225	-0.0568024	0.275483
3.226	-0.0822928	0.275483
3.227	0.00912827	0.275483
3.228	0.174086	0.275483
3.229	0.16748	0.275483
3.23	-0.105692	0.275483
3.231	-0.208243	0.275483
3.232	-0.14439	0.275483
3.233	0.00259138	0.275483
3.234	0.145924	0.275483
3.235	0.170791	0.275483
3.236	0.0364334	0.275483
3.237	-0.100781	0.275483
3.238	-0.083547	0.275483
3.239	-0.035035	0.275483
3.24	0.0758685	0.275483
3.241	0.0731593	0.275483
3.242	-0.0694923	0.275483
3.243	-0.1032	0.275483
3.244	-0.00652588	0.275483
3.245	0.107657	0.275483
3.246	0.123861	0.275483
3.247	-0.04367	0.275483
3.248	-0.088226	0.275483
3.249	-0.0661224	0.275483
3.25	0.0286703	0.275483
3.251	0.0392864	0.275483
3.252	0.0439079	0.275483
3.253	-0.0320011	0.275483
3.254	-0.112234	0.275483
3.255	0.0890042	0.275483
3.256	0.112253	0.275483
3.257	-0.012921	0.275483
3.258	-0.0562034	0.275483
3.259	-0.100009	0.275483
3.26	-0.0684731	0.275483
3.261	0.082096	0.275483
3.262	0.212978	0.275483
3.263	0.000510623	0.275483
3.264	-0.194913	0.275483
3.265	-0.154097	0.275483
3.266	0.0373467	0.275483
3.267	0.202845	0.275483
3.268	0.17662	0.275483
3.269	0.0164716	0.275483
3.27	-0.221444	0.275483
3.271	-0.266305	0.275483
3.272	0.0583129	0.275483
3.273	0.155924	0.275483
3.274	0.0631139	0.275483
3.275	-0.0551071	0.275483
3.276	0.0555895	0.275483
3.277	0.0768833	0.275483
3.278	0.0603842	0.275483
3.279	0.0245005	0.275483
3.28	-0.199666	0.275483
3.281	-0.226464	0.275483
3.282	-0.0824359	0.275483
3.283	0.128292	0.275483
3.284	0.282189	0.275483
3.285	0.147453	0.275483
3.286	-0.0519919	0.275483
3.287	-0.179531	0.275483
3.288	-0.0446613	0.275483
3.289	0.0821039	0.275483
3.29	-0.0319953	0.275483
3.291	-0.13644	0.275483
3.292	-0.0520293	0.275483
3.293	-0.0105565	0.275483
3.294	0.130324	0.275483
3.295	0.258072	0.275483
3.296	0.0804753	0.275483
3.297	-0.174553	0.275483
3.298	-0.202397	0.275483
3.299	-0.0696657	0.275483
3.3	0.0445097	0.275483
3.301	0.0794063	0.275483
3.302	0.0940535	0.275483
3.303	0.0083031	0.275483
3.304	-0.105338	0.275483
3.305	0.00136982	0.275483
3.306	0.0307281	0.275483
3.307	0.0605442	0.275483
3.308	0.00885781	0.275483
3.309	-0.0823969	0.275483
3.31	-0.0479357	0.275483
3.311	0.050768	0.275483
3.312	0.089278	0.275483
3.313	-0.047217	0.275483
3.314	-0.106073	0.275483
3.315	-0.0127065	0.275483
3.316	0.0504169	0.275483
3.317	0.109966	0.275483
3.318	0.0535019	0.275483
3.319	-0.0617832	0.275483
3.32	-0.129682	0.275483
3.321	-0.0475229	0.275483
3.322	0.145285	0.275483
3.323	0.136051	0.275483
3.324	-0.104979	0.275483
3.325	-0.236036	0.275483
3.326	-0.056549	0.275483
3.327	0.153656	0.275483
3.328	0.248491	0.275483
3.329	0.105818	0.275483
3.33	-0.170858	0.275483
3.331	-0.163799	0.275483
3.332	-0.0602455	0.275483
3.333	0.00355599	0.275483
3.334	0.0664989	0.275483
3.335	0.0910076	0.275483
3.336	0.0422721	0.275483
3.337	-0.0966887	0.275858
3.338	-0.0256741	0.275483
3.339	0.0496797	0.275483
3.34	0.0501122	0.275483
3.341	-0.0117874	0.275483
3.342	-0.0469021	0.275483
3.343	-0.0480614	0.275483
3.344	-0.00534511	0.275483
3.345	0.0724417	0.275858
3.346	0.0705978	0.275858
3.347	-0.0945856	0.275483
3.348	-0.118702	0.275483
3.349	0.0206819	0.275483
3.35	0.141668	0.275858
3.351	0.149732	0.275858
3.352	-0.0206932	0.275858
3.353	-0.21624	0.275858
3.354	-0.131857	0.275858
3.355	0.0736156	0.275858
3.356	0.152338	0.275858
3.357	0.0515433	0.275858
3.358	-0.0798194	0.275858
3.359	-0.095525	0.275858
3.36	-0.0135726	0.275858
3.361	0.0929185	0.275858
3.362	0.200876	0.275858
3.363	-0.0126964	0.275858
3.364	-0.206893	0.275858
3.365	-0.157351	0.275858
3.366	-0.0699736	0.275858
3.367	0.0643656	0.275858
3.368	0.257727	0.275858
3.369	0.22631	0.275858
3.37	-0.0660603	0.275858
3.371	-0.228335	0.275858
3.372	-0.0971766	0.275858
3.373	-0.0472478	0.275858
3.374	-0.033817	0.275858
3.375	0.0370755	0.275858
3.376	0.104741	0.275858
3.377	0.0918658	0.275858
3.378	0.119171	0.275858
3.379	0.0614579	0.275858
3.38	-0.143687	0.275858
3.381	-0.177504	0.275858
3.382	-0.108924	0.275858
3.383	0.0052601	0.275858
3.384	0.0675127	0.275858
3.385	0.0753695	0.275858
3.386	0.0524434	0.275858
3.387	0.019104	0.275858
3.388	0.086241	0.275858
3.389	0.0915773	0.275858
3.39	0.0175393	0.275858
3.391	-0.181638	0.275858
3.392	-0.293431	0.275858
3.393	-0.157062	0.275858
3.394	0.100742	0.275858
3.395	0.319724	0.275858
3.396	0.261674	0.275858
3.397	-0.030533	0.275858
3.398	-0.165181	0.275858
3.399	-0.0939416	0.275858
3.4	-0.0259448	0.275858
3.401	-0.00226354	0.275858
3.402	0.0161357	0.275858
3.403	-0.0500136	0.275858
3.404	-0.0948904	0.275858
3.405	0.092611	0.275858
3.406	0.129337	0.275858
3.407	0.0478238	0.275858
3.408	-0.0221565	0.275858
3.409	-0.0312726	0.275858
3.41	-0.063725	0.275858
3.411	-0.0521332	0.275858
3.412	0.130383	0.275858
3.413	0.0155203	0.275858
3.414	-0.159863	0.275858
3.415	-0.0819101	0.275858
3.416	0.107531	0.275483
3.417	0.114234	0.275858
3.418	0.0656684	0.275483
3.419	-0.0248784	0.275858
3.42	-0.16514	0.275858
3.421	-0.0772872	0.275858
3.422	0.129261	0.275858
3.423	0.137357	0.275858
3.424	-0.0129196	0.275858
3.425	-0.128044	0.275858
3.426	-0.118873	0.275858
3.427	-0.00139431	0.275858
3.428	0.125915	0.275858
3.429	0.170559	0.275858
3.43	-0.00738088	0.275858
3.431	-0.159507	0.275858
3.432	-0.103225	0.275858
3.433	0.0697448	0.275858
3.434	0.0173422	0.275858
3.435	0.0349782	0.275858
3.436	0.0612092	0.275858
3.437	-0.0887206	0.275858
3.438	-0.025296	0.275858
3.439	0.0566697	0.275858
3.44	0.0370906	0.275858
3.441	0.00352281	0.275858
3.442	-0.0444558	0.275858
3.443	-0.0558911	0.275858
3.444	-0.0295622	0.275858
3.445	0.0673068	0.275858
3.446	-0.000630184	0.275858
3.447	-0.0374967	0.275858
3.448	0.0254061	0.275858
3.449	0.0993068	0.275858
3.45	0.0721962	0.275858
3.451	-0.0145262	0.275858
3.452	-0.118582	0.275858
3.453	-0.219372	0.275858
3.454	-0.149332	0.275858
3.455	0.218458	0.275858
3.456	0.287615	0.275858
3.457	0.129605	0.275858
3.458	-0.0901088	0.275858
3.459	-0.211438	0.275858
3.46	-0.13907	0.275858
3.461	-0.000387973	0.275858
3.462	0.130368	0.275858
3.463	0.0691959	0.275858
3.464	-0.0392496	0.275858
3.465	-0.0620274	0.275858
3.466	0.00948298	0.275858
3.467	0.0853883	0.275858
3.468	0.0780496	0.275858
3.469	0.00769957	0.275858
3.47	-0.131234	0.275858
3.471	-0.14046	0.275858
3.472	0.0381285	0.275858
3.473	0.0835657	0.275858
3.474	0.0540909	0.275858
3.475	0.000979646	0.275858
3.476	-0.0491361	0.275858
3.477	-0.00079272	0.275858
3.478	0.0797013	0.275858
3.479	0.0874912	0.275858
3.48	-0.091356	0.275858
3.481	-0.164066	0.275858
3.482	-0.0621091	0.275858
3.483	0.0751166	0.275858
3.484	0.114165	0.275858
3.485	0.0984037	0.275858
3.486	-0.0181661	0.275483
3.487	-0.155055	0.275858
3.488	-0.00881054	0.275858
3.489	0.103603	0.275858
3.49	0.0504265	0.275858
3.491	-0.050907	0.275858
3.492	-0.102305	0.275858
3.493	-0.0722207	0.275858
3.494	0.0197043	0.275858
3.495	0.167744	0.275858
3.496	0.0860552	0.275858
3.497	-0.0851216	0.275858
3.498	-0.0835908	0.275858
3.499	0.00352333	0.275858
3.5	0.0434038	0.275858
3.501	0.0581829	0.275858
3.502	-0.0100944	0.275858
3.503	-0.113396	0.275858
3.504	-0.112754	0.275858
3.505	0.0359774	0.275858
3.506	0.121598	0.275858
3.507	0.146229	0.275858
3.508	0.02789	0.275858
3.509	-0.0988223	0.275858
3.51	-0.13083	0.275858
3.511	-0.0491015	0.275858
3.512	0.119594	0.275858
3.513	0.00236908	0.275858
3.514	-0.102439	0.275858
3.515	0.00541043	0.275858
3.516	0.136112	0.275858
3.517	0.0880458	0.275858
3.518	-0.0454271	0.275858
3.519	-0.056084	0.275858
3.52	-0.141375	0.275858
3.521	-0.0676648	0.275858
3.522	0.121726	0.275858
3.523	0.144596	0.275858
3.524	0.022868	0.275858
3.525	-0.0735915	0.275858
3.526	-0.0968462	0.275858
3.527	-0.0600734	0.275858
3.528	0.0637226	0.275858
3.529	0.137517	0.275483
3.53	-0.0106748	0.275858
3.531	-0.10222	0.275858
3.532	-0.0655014	0.275858
3.533	0.0540573	0.275858
3.534	0.0926548	0.275858
3.535	0.0444947	0.275483
3.536	-0.0557754	0.275483
3.537	-0.150385	0.275858
3.538	-0.00604982	0.275483
3.539	0.109209	0.275858
3.54	0.0588204	0.275483
3.541	-0.0501262	0.275858
3.542	0.000479708	0.275858
3.543	0.00541618	0.275483
3.544	-0.0246807	0.275483
3.545	0.0582121	0.275483
3.546	0.00311349	0.275483
3.547	-0.102511	0.275858
3.548	-0.031878	0.275858
3.549	0.0646712	0.275483
3.55	0.0646434	0.275483
3.551	0.0129439	0.275858
3.552	-0.0350904	0.275483
3.553	-0.101113	0.275483
3.554	-0.0844565	0.275858
3.555	0.169622	0.275858
3.556	0.16719	0.275858
3.557	0.00436408	0.275858
3.558	-0.125224	0.275483
3.559	-0.175801	0.275483
3.56	-0.108176	0.275483
3.561	0.0737622	0.275858
3.562	0.246491	0.275858
3.563	0.0822415	0.275858
3.564	-0.0901894	0.275483
3.565	-0.102996	0.275483
3.566	-0.00447695	0.275483
3.567	0.0123523	0.275858
3.568	0.0184104	0.275858
3.569	-0.0179329	0.275483
3.57	-0.0915623	0.275858
3.571	0.00779692	0.275483
3.572	0.158415	0.275858
3.573	0.0922385	0.275483
3.574	-0.0593591	0.275858
3.575	-0.100014	0.275483
3.576	-0.110126	0.275483
3.577	-0.00759831	0.275483
3.578	0.152796	0.275483
3.579	0.0868537	0.275483
3.58	-0.111515	0.275483
3.581	-0.0902486	0.275483
3.582	0.026312	0.275483
3.583	0.0965037	0.275483
3.584	0.0707902	0.275483
3.585	-0.00965216	0.275483
3.586	-0.0714805	0.275483
3.587	-0.132996	0.275483
3.588	-0.000544948	0.275483
3.589	0.0790511	0.275483
3.59	0.0524371	0.275483
3.591	0.0177559	0.275483
3.592	-0.0582222	0.275483
3.593	-0.05451	0.275483
3.594	0.0901744	0.275483
3.595	0.167504	0.275483
3.596	-0.0108484	0.275483
3.597	-0.210521	0.275483
3.598	-0.171611	0.275483
3.599	-0.0297806	0.275483
3.6	0.129885	0.275483
3.601	0.218727	0.275483
3.602	0.130223	0.275483
3.603	-0.108327	0.275483
3.604	-0.201648	0.275483
3.605	-0.0105074	0.275483
3.606	0.0349459	0.275483
3.607	0.00608346	0.275483
3.608	0.0158705	0.275483
3.609	0.0142525	0.275483
3.61	0.000726006	0.275483
3.611	0.0162982	0.275483
3.612	0.0828638	0.275483
3.613	-0.0564653	0.275483
3.614	-0.0941187	0.275483
3.615	-0.0260302	0.275483
3.616	0.0334248	0.275483
3.617	0.0999407	0.275483
3.618	0.0603209	0.275858
3.619	-0.0622074	0.275483
3.62	-0.129338	0.275483
3.621	-0.0151343	0.275858
3.622	0.0969218	0.275483
3.623	0.04895	0.275483
3.624	-0.0198506	0.275483
3.625	-0.0534087	0.275858
3.626	-0.0484663	0.275858
3.627	0.00255148	0.275858
3.628	0.116861	0.275858
3.629	0.131023	0.275858
3.63	-0.0921476	0.275858
3.631	-0.175369	0.275858
3.632	-0.0695953	0.275483
3.633	0.0751536	0.275858
3.634	0.114197	0.275858
3.635	0.0524457	0.275483
3.636	-0.0282093	0.275858
3.637	-0.118395	0.275858
3.638	-0.00991144	0.275483
3.639	0.0913838	0.275483
3.64	0.0606502	0.275483
3.641	-0.0151626	0.275858
3.642	-0.0831204	0.275483
3.643	-0.0929022	0.275483
3.644	0.0439065	0.275483
3.645	0.127131	0.275858
3.646	0.00382736	0.275858
3.647	-0.0747619	0.275858
3.648	-0.0251515	0.275858
3.649	0.0168231	0.275858
3.65	0.0126615	0.275858
3.651	0.0578433	0.275858
3.652	0.0206475	0.275858
3.653	-0.0917937	0.275858
3.654	-0.0929822	0.275858
3.655	0.0720718	0.275858
3.656	0.114676	0.275858
3.657	0.0218758	0.275858
3.658	-0.0707071	0.275858
3.659	-0.0994798	0.275858
3.66	-0.0329947	0.275858
3.661	0.0709947	0.275858
3.662	0.138964	0.275858
3.663	-0.0224244	0.275858
3.664	-0.0681027	0.275858
3.665	-0.044274	0.275858
3.666	-0.0193733	0.275858
3.667	0.0610787	0.275858
3.668	0.0715972	0.275858
3.669	-0.0354486	0.275858
3.67	-0.128982	0.275858
3.671	-0.0297714	0.275858
3.672	0.0945865	0.275483
3.673	0.0785233	0.275483
3.674	0.0252492	0.275483
3.675	-0.0382978	0.275483
3.676	-0.0829259	0.275858
3.677	-0.00355282	0.275858
3.678	0.0857982	0.275858
3.679	0.056459	0.275483
3.68	-0.118846	0.275483
3.681	-0.145582	0.275858
3.682	0.00152723	0.275858
3.683	0.125584	0.275483
3.684	0.1929	0.275483
3.685	0.0832856	0.275483
3.686	-0.113646	0.275483
3.687	-0.224954	0.275483
3.688	-0.0777361	0.275483
3.689	0.0576921	0.275483
3.69	0.101699	0.275483
3.691	0.066401	0.275483
3.692	-0.00489884	0.275483
3.693	-0.0395044	0.275483
3.694	0.00245368	0.275483
3.695	0.0966342	0.275483
3.696	-0.0159509	0.275483
3.697	-0.163678	0.275483
3.698	-0.0926485	0.275483
3.699	0.067708	0.275483
3.7	0.1333	0.275483
3.701	0.110413	0.275483
3.702	-0.0229496	0.275483
3.703	-0.152891	0.275483
3.704	-0.108848	0.275483
3.705	0.0759556	0.275483
3.706	0.0859339	0.275483
3.707	0.0328964	0.275483
3.708	-0.0187522	0.275483
3.709	-0.0375199	0.275483
3.71	-0.0269286	0.275483
3.711	0.0177662	0.275483
3.712	0.0709518	0.275483
3.713	-0.0450648	0.275483
3.714	-0.0765329	0.275483
3.715	-0.0292411	0.275483
3.716	0.0485424	0.275483
3.717	0.0875285	0.275483
3.718	0.079509	0.275483
3.719	-0.0350339	0.275483
3.72	-0.170214	0.275858
3.721	-0.0582648	0.275483
3.722	0.112607	0.275483
3.723	0.107058	0.275858
3.724	-0.0191731	0.275483
3.725	-0.0787694	0.275483
3.726	-0.0704558	0.275483
3.727	0.016207	0.275483
3.728	0.13878	0.275483
3.729	0.0973965	0.275483
3.73	-0.11017	0.275483
3.731	-0.153954	0.275483
3.732	-0.0761895	0.275483
3.733	0.0823793	0.275483
3.734	0.180147	0.275858
3.735	0.0953721	0.275483
3.736	-0.0892327	0.275858
3.737	-0.1812	0.275858
3.738	-0.00213021	0.275483
3.739	0.0899744	0.275483
3.74	0.0131804	0.275858
3.741	-0.0429998	0.275858
3.742	-0.00502296	0.275858
3.743	0.0398503	0.275483
3.744	0.045543	0.275858
3.745	0.0673511	0.275858
3.746	-0.0442377	0.275858
3.747	-0.151235	0.275858
3.748	-0.0617793	0.275858
3.749	0.0668221	0.275858
3.75	0.102407	0.275858
3.751	0.0781637	0.275858
3.752	-0.00309069	0.275858
3.753	-0.118898	0.275858
3.754	-0.0919239	0.275858
3.755	0.0647377	0.275858
3.756	0.0677485	0.275858
3.757	0.0198908	0.275858
3.758	-0.026847	0.275858
3.759	-0.0614706	0.275858
3.76	-0.00730083	0.275858
3.761	0.0772645	0.275858
3.762	0.0984656	0.275858
3.763	-0.100718	0.275858
3.764	-0.148001	0.275858
3.765	-0.00670799	0.275858
3.766	0.13609	0.275858
3.767	0.111849	0.275858
3.768	0.00771425	0.275858
3.769	-0.0859874	0.275858
3.77	-0.154367	0.275858
3.771	-0.0299748	0.275858
3.772	0.119081	0.275858
3.773	0.108873	0.275858
3.774	0.0136454	0.275858
3.775	-0.0858656	0.275858
3.776	-0.082212	0.275858
3.777	0.0107382	0.275858
3.778	0.0949266	0.275858
3.779	0.0438003	0.275858
3.78	-0.0829569	0.275858
3.781	-0.0632426	0.275483
3.782	-0.0016654	0.275858
3.783	0.0683166	0.275858
3.784	0.087167	0.275858
3.785	0.0115591	0.275483
3.786	-0.0825659	0.275858
3.787	-0.145141	0.275858
3.788	0.00175735	0.275483
3.789	0.129703	0.275483
3.79	0.0913095	0.275483
3.791	-0.0102827	0.275483
3.792	-0.0769711	0.275483
3.793	-0.0735784	0.275483
3.794	0.0141705	0.275483
3.795	0.11229	0.275858
3.796	0.0107818	0.275858
3.797	-0.0933776	0.275483
3.798	-0.0836612	0.275858
3.799	0.0270297	0.275858
3.8	0.105684	0.275483
3.801	0.0887582	0.275483
3.802	-0.00098981	0.275483
3.803	-0.133778	0.275858
3.804	-0.115723	0.275483
3.805	0.0774002	0.275483
3.806	0.106072	0.275483
3.807	0.0220996	0.275858
3.808	-0.0587121	0.275483
3.809	-0.0730349	0.275483
3.81	-0.01036	0.275483
3.811	0.0765773	0.275483
3.812	0.122362	0.275483
3.813	-0.053427	0.275483
3.814	-0.114133	0.275483
3.815	-0.0490099	0.275483
3.816	0.031722	0.275483
3.817	0.0757757	0.275483
3.818	0.0581143	0.275483
3.819	-0.013883	0.275483
3.82	-0.119096	0.275483
3.821	-0.0347959	0.275483
3.822	0.0885224	0.275483
3.823	0.0815261	0.275483
3.824	-0.00845404	0.275483
3.825	-0.0851375	0.275483
3.826	-0.0639633	0.275483
3.827	0.0152532	0.275483
3.828	0.115216	0.275483
3.829	0.0569381	0.275483
3.83	-0.0904241	0.275483
3.831	-0.0889787	0.275483
3.832	-0.00309364	0.275483
3.833	0.0705973	0.275483
3.834	0.0638699	0.275483
3.835	0.0104926	0.275483
3.836	-0.0774927	0.275483
3.837	-0.112945	0.275483
3.838	0.0871601	0.275483
3.839	0.130335	0.275483
3.84	0.0157836	0.275483
3.841	-0.0523081	0.275483
3.842	-0.144505	0.275483
3.843	-0.120881	0.275483
3.844	0.0934753	0.275483
3.845	0.247223	0.275483
3.846	0.0670049	0.275483
3.847	-0.14136	0.275858
3.848	-0.13451	0.275483
3.849	-0.016465	0.275483
3.85	0.0472584	0.275483
3.851	0.0777483	0.275483
3.852	0.0232841	0.275483
3.853	-0.0889712	0.275483
3.854	-0.0728022	0.275858
3.855	0.0925455	0.275858
3.856	0.111964	0.275483
3.857	0.0122664	0.275483
3.858	-0.094316	0.275483
3.859	-0.125689	0.275483
3.86	-0.0120769	0.275483
3.861	0.0977668	0.275483
3.862	0.132298	0.275483
3.863	-0.0276236	0.275483
3.864	-0.113648	0.275483
3.865	-0.0648965	0.275483
3.866	0.0573953	0.275483
3.867	0.0894502	0.275483
3.868	0.0468157	0.275483
3.869	-0.0615342	0.275483
3.87	-0.149116	0.275483
3.871	0.000126222	0.275483
3.872	0.133976	0.275483
3.873	0.0821841	0.275483
3.874	-0.0365373	0.275483
3.875	-0.0995144	0.275483
3.876	-0.0680974	0.275483
3.877	0.0237323	0.275483
3.878	0.119416	0.275483
3.879	0.0839807	0.275483
3.88	-0.0727849	0.275483
3.881	-0.104844	0.275483
3.882	-0.042003	0.275483
3.883	0.0352499	0.275483
3.884	0.0884706	0.275483
3.885	0.0419947	0.275483
3.886	-0.0501045	0.275483
3.887	-0.0961181	0.275483
3.888	0.0265361	0.275483
3.889	0.0887399	0.275483
3.89	0.0425931	0.275483
3.891	-0.050665	0.275483
3.892	-0.100495	0.275483
3.893	-0.051879	0.275483
3.894	0.0577644	0.275483
3.895	0.156612	0.275483
3.896	0.0397828	0.275483
3.897	-0.115609	0.275483
3.898	-0.121133	0.275483
3.899	-0.00130179	0.275483
3.9	0.0920833	0.275483
3.901	0.101395	0.275483
3.902	-0.00386137	0.275483
3.903	-0.113668	0.275483
3.904	-0.0870025	0.275483
3.905	0.0680178	0.275483
3.906	0.0906757	0.275483
3.907	0.0219791	0.275483
3.908	-0.042709	0.275483
3.909	-0.0665845	0.275483
3.91	-0.036166	0.275483
3.911	0.0626034	0.275483
3.912	0.111883	0.275483
3.913	-0.0435499	0.275858
3.914	-0.107879	0.275858
3.915	-0.0356638	0.275483
3.916	0.0670296	0.275483
3.917	0.089411	0.275483
3.918	0.0198258	0.275483
3.919	-0.0681931	0.275483
3.92	-0.125945	0.275483
3.921	0.00555329	0.275483
3.922	0.125683	0.275483
3.923	0.0890673	0.275483
3.924	-0.0256176	0.275483
3.925	-0.0931449	0.275483
3.926	-0.112418	0.275483
3.927	-0.00113772	0.275483
3.928	0.141939	0.275483
3.929	0.102046	0.275483
3.93	-0.043305	0.275483
3.931	-0.102053	0.275483
3.932	-0.0465832	0.275483
3.933	0.0359078	0.275483
3.934	0.0514197	0.275483
3.935	0.0346538	0.275483
3.936	-0.067923	0.275483
3.937	-0.0943297	0.275483
3.938	0.0701112	0.275483
3.939	0.111226	0.275483
3.94	0.036981	0.275858
3.941	-0.0541946	0.275483
3.942	-0.117412	0.275483
3.943	-0.0601333	0.275483
3.944	0.0558728	0.275483
3.945	0.150774	0.275483
3.946	0.0194676	0.275483
3.947	-0.106136	0.275483
3.948	-0.0818627	0.275483
3.949	0.0263788	0.275483
3.95	0.0805831	0.275483
3.951	0.0592256	0.275483
3.952	-0.0346727	0.275483
3.953	-0.120453	0.275483
3.954	-0.03673	0.275483
3.955	0.110597	0.275483
3.956	0.0951272	0.275483
3.957	-0.000898807	0.275483
3.958	-0.102888	0.275483
3.959	-0.107094	0.275858
3.96	-0.00436167	0.275483
3.961	0.117231	0.275483
3.962	0.145975	0.275483
3.963	-0.04278	0.275858
3.964	-0.142014	0.275858
3.965	-0.0723792	0.275858
3.966	0.0636557	0.275858
3.967	0.10405	0.275858
3.968	0.0460288	0.275858
3.969	-0.0706853	0.275858
3.97	-0.149136	0.275858
3.971	-0.00451664	0.275858
3.972	0.126902	0.275858
3.973	0.111115	0.275858
3.974	-0.00318992	0.275858
3.975	-0.0964687	0.275858
3.976	-0.10941	0.275858
3.977	-0.00997773	0.275858
3.978	0.121786	0.275858
3.979	0.0782965	0.275858
3.98	-0.0772768	0.275858
3.981	-0.0783851	0.275858
3.982	0.0194356	0.275858
3.983	0.0417543	0.275858
3.984	0.0491993	0.275858
3.985	0.0153174	0.275858
3.986	-0.0777476	0.275858
3.987	-0.0859386	0.275858
3.988	0.0667755	0.275858
3.989	0.0795236	0.275858
3.99	0.020858	0.275858
3.991	-0.0514122	0.275858
3.992	-0.0791036	0.275858
3.993	-0.0223233	0.275858
3.994	0.07	0.275858
3.995	0.123239	0.275858
3.996	-0.00616556	0.275858
3.997	-0.124574	0.275858
3.998	-0.0988273	0.275858
3.999	0.0277692	0.275858
4	0.0957241	0.275858
4.001	0.0959211	0.275858
4.002	0.0100667	0.275858
4.003	-0.111975	0.275858
4.004	-0.096529	0.275858
4.005	0.0469159	0.275858
4.006	0.0719649	0.275858
4.007	0.0124445	0.275858
4.008	-0.0143441	0.275858
4.009	-0.0496957	0.275858
4.01	-0.039068	0.275858
4.011	0.0712098	0.275858
4.012	0.114998	0.275858
4.013	-0.044592	0.275858
4.014	-0.113703	0.275858
4.015	-0.0492454	0.275858
4.016	0.0282176	0.275858
4.017	0.0691158	0.275858
4.018	0.0725266	0.275858
4.019	-0.0128929	0.275858
4.02	-0.120164	0.275858
4.021	-0.0145624	0.275858
4.022	0.0792389	0.275858
4.023	0.042336	0.275858
4.024	-0.0181957	0.275858
4.025	-0.0572946	0.275858
4.026	-0.0587012	0.275858
4.027	0.0196003	0.275858
4.028	0.134624	0.275858
4.029	0.0591786	0.275858
4.03	-0.105786	0.275858
4.031	-0.110507	0.275858
4.032	-0.0038129	0.275858
4.033	0.0634983	0.275858
4.034	0.0720283	0.275858
4.035	0.016547	0.275858
4.036	-0.0588374	0.275858
4.037	-0.0861993	0.275858
4.038	0.0514995	0.275858
4.039	0.0894784	0.275858
4.04	0.0337159	0.275858
4.041	-0.0627871	0.275858
4.042	-0.0973717	0.275858
4.043	-0.0509333	0.275858
4.044	0.064874	0.275858
4.045	0.14381	0.275858
4.046	0.000716358	0.275858
4.047	-0.0951791	0.275858
4.048	-0.058452	0.275858
4.049	0.0232163	0.275858
4.05	0.0705997	0.275483
4.051	0.0499791	0.275858
4.052	-0.0327814	0.275483
4.053	-0.125091	0.275858
4.054	-0.0555253	0.275858
4.055	0.107872	0.275858
4.056	0.108693	0.275858
4.057	0.00642345	0.275483
4.058	-0.0723965	0.275858
4.059	-0.0777296	0.275858
4.06	-0.028626	0.275483
4.061	0.0810684	0.275858
4.062	0.145165	0.275858
4.063	-0.0747296	0.275483
4.064	-0.1431	0.275483
4.065	-0.0390892	0.275483
4.066	0.0758105	0.275483
4.067	0.10136	0.275858
4.068	0.052316	0.275483
4.069	-0.0539933	0.275483
4.07	-0.135009	0.275483
4.071	-0.0133865	0.275483
4.072	0.0753467	0.275483
4.073	0.0740051	0.275483
4.074	0.00792249	0.275483
4.075	-0.0689543	0.275483
4.076	-0.08142	0.275483
4.077	0.00396321	0.275483
4.078	0.17024	0.275483
4.079	0.0574768	0.275483
4.08	-0.169964	0.275483
4.081	-0.122499	0.275483
4.082	0.0454833	0.275483
4.083	0.133626	0.275483
4.084	0.103038	0.275483
4.085	-0.0182254	0.275483
4.086	-0.152523	0.275483
4.087	-0.125819	0.275483
4.088	0.0894036	0.275483
4.089	0.117774	0.275483
4.09	0.0306859	0.275483
4.091	-0.0416401	0.275483
4.092	-0.0819978	0.275483
4.093	-0.0347328	0.275483
4.094	0.0657928	0.275483
4.095	0.132272	0.275483
4.096	-0.00776099	0.275483
4.097	-0.125515	0.275483
4.098	-0.0997919	0.275483
4.099	0.00879668	0.275483
4.1	0.0641502	0.275483
4.101	0.106174	0.275483
4.102	0.0492477	0.275483
4.103	-0.0729171	0.275483
4.104	-0.0860531	0.275483
4.105	0.0121098	0.275483
4.106	0.0454287	0.275483
4.107	0.0207899	0.275483
4.108	-0.0312882	0.275483
4.109	-0.0636858	0.275483
4.11	-0.0178345	0.275483
4.111	0.0949084	0.275483
4.112	0.111604	0.275483
4.113	-0.063443	0.275483
4.114	-0.113784	0.275483
4.115	-0.0451574	0.275483
4.116	0.0633127	0.275483
4.117	0.0931254	0.275483
4.118	0.0340988	0.275483
4.119	-0.062234	0.275483
4.12	-0.137276	0.275483
4.121	0.00827232	0.275858
4.122	0.107435	0.275858
4.123	0.0667237	0.275483
4.124	-0.0168459	0.275483
4.125	-0.0734629	0.275858
4.126	-0.0587864	0.275858
4.127	0.0169729	0.275858
4.128	0.10791	0.275858
4.129	0.0537109	0.275483
4.13	-0.0746553	0.275858
4.131	-0.107717	0.275858
4.132	-0.0193917	0.275858
4.133	0.05376	0.275858
4.134	0.0865762	0.275858
4.135	0.0402769	0.275858
4.136	-0.064685	0.275858
4.137	-0.0900236	0.275483
4.138	0.0537208	0.275483
4.139	0.0691629	0.275858
4.14	0.00562207	0.275483
4.141	-0.0614976	0.275858
4.142	-0.0905236	0.275483
4.143	-0.0381191	0.275858
4.144	0.106246	0.275483
4.145	0.173955	0.275483
4.146	-0.0102483	0.275483
4.147	-0.128778	0.275858
4.148	-0.0895656	0.275483
4.149	0.00738344	0.275483
4.15	0.0636897	0.275483
4.151	0.0440207	0.275483
4.152	-0.0395024	0.275483
4.153	-0.091014	0.275483
4.154	0.0263718	0.275483
4.155	0.160182	0.275483
4.156	0.0692794	0.275483
4.157	-0.0657956	0.275483
4.158	-0.121707	0.275483
4.159	-0.136169	0.275858
4.16	-0.0142469	0.275483
4.161	0.149426	0.275483
4.162	0.164342	0.275483
4.163	-0.040029	0.275483
4.164	-0.106546	0.275483
4.165	-0.0142045	0.275483
4.166	0.0444981	0.275483
4.167	0.0281429	0.275483
4.168	-0.0278548	0.275483
4.169	-0.0845133	0.275858
4.17	-0.09662	0.275483
4.171	0.0671975	0.275858
4.172	0.138909	0.275858
4.173	0.0668573	0.275483
4.174	0.0312879	0.275858
4.175	-0.0683673	0.275858
4.176	-0.114661	0.275858
4.177	-0.0933117	0.275483
4.178	-0.0110312	0.275858
4.179	0.135869	0.275858
4.18	0.098363	0.275858
4.181	-0.0424338	0.275858
4.182	-0.0734636	0.275483
4.183	-0.00217616	0.275858
4.184	0.0590844	0.275858
4.185	0.0661743	0.275858
4.186	-0.0331921	0.275858
4.187	-0.151566	0.275858
4.188	-0.0964723	0.275858
4.189	0.126676	0.275858
4.19	0.131918	0.275858
4.191	0.0279859	0.275858
4.192	-0.0457738	0.275858
4.193	-0.0818613	0.275858
4.194	-0.0422362	0.275858
4.195	0.0511458	0.275858
4.196	0.106708	0.275858
4.197	-0.0564605	0.275858
4.198	-0.109558	0.275858
4.199	-0.0283905	0.275858
4.2	0.0507948	0.275858
4.201	0.0994248	0.275858
4.202	0.0877646	0.275858
4.203	-0.022084	0.275858
4.204	-0.15327	0.275858
4.205	-0.0814193	0.275858
4.206	0.0744526	0.275858
4.207	0.0815294	0.275858
4.208	0.00471408	0.275858
4.209	-0.0450847	0.275858
4.21	-0.0440173	0.275858
4.211	0.0064439	0.275858
4.212	0.102506	0.275858
4.213	0.0751971	0.275858
4.214	-0.0926252	0.275858
4.215	-0.107817	0.275858
4.216	-0.0361017	0.275858
4.217	0.0562349	0.275858
4.218	0.106184	0.275858
4.219	0.0299654	0.275858
4.22	-0.0776848	0.275858
4.221	-0.131895	0.275858
4.222	0.0341422	0.275858
4.223	0.122763	0.275858
4.224	0.0752586	0.275858
4.225	0.00195937	0.275858
4.226	-0.0909384	0.275858
4.227	-0.127883	0.275858
4.228	-0.0539368	0.275858
4.229	0.115943	0.275858
4.23	0.140142	0.275858
4.231	-0.0189535	0.275858
4.232	-0.0950669	0.275858
4.233	-0.0348092	0.275858
4.234	0.0411031	0.275858
4.235	0.0608687	0.275858
4.236	-0.00112048	0.275858
4.237	-0.0793326	0.275858
4.238	-0.0759474	0.275858
4.239	0.0702818	0.275858
4.24	0.0906276	0.275858
4.241	0.0138298	0.275858
4.242	-0.0520869	0.275858
4.243	-0.0633148	0.275858
4.244	-0.0234111	0.275858
4.245	0.049113	0.275858
4.246	0.108988	0.275858
4.247	-0.0284436	0.275858
4.248	-0.0908375	0.275858
4.249	-0.0405733	0.275858
4.25	0.0286656	0.275858
4.251	0.0519792	0.275858
4.252	0.058993	0.275858
4.253	0.02678	0.275858
4.254	-0.12839	0.275858
4.255	-0.100739	0.275858
4.256	0.0900184	0.275858
4.257	0.122116	0.275858
4.258	0.0218755	0.275858
4.259	-0.0975409	0.275858
4.26	-0.109744	0.275858
4.261	-0.00354348	0.275858
4.262	0.128156	0.275858
4.263	0.120791	0.275858
4.264	-0.0519206	0.275858
4.265	-0.115177	0.275858
4.266	-0.0479869	0.275858
4.267	0.0341645	0.275858
4.268	0.0550601	0.275858
4.269	0.0051056	0.275858
4.27	-0.0513535	0.275858
4.271	-0.050545	0.275858
4.272	0.0914656	0.275858
4.273	0.0991391	0.275858
4.274	0.0031065	0.275858
4.275	-0.0876057	0.275858
4.276	-0.101575	0.275858
4.277	-0.0615506	0.275858
4.278	0.0381411	0.275858
4.279	0.180306	0.275858
4.28	0.0874096	0.275858
4.281	-0.0994024	0.275858
4.282	-0.143526	0.275858
4.283	-0.0349728	0.275858
4.284	0.0655114	0.275858
4.285	0.116239	0.275858
4.286	0.0368109	0.275858
4.287	-0.1023	0.275858
4.288	-0.0939655	0.275858
4.289	0.0635344	0.275858
4.29	0.0688718	0.275858
4.291	-0.00990646	0.275858
4.292	-0.0572494	0.275858
4.293	-0.0380234	0.275858
4.294	0.0291902	0.275858
4.295	0.0749357	0.275858
4.296	0.084486	0.275858
4.297	-0.0391272	0.275858
4.298	-0.126858	0.275858
4.299	-0.0839966	0.275858
4.3	0.0453078	0.275858
4.301	0.0521519	0.275858
4.302	0.0566854	0.275858
4.303	0.0696977	0.27623
4.304	-0.0503774	0.275858
4.305	-0.0724489	0.275858
4.306	0.033648	0.275858
4.307	0.0366404	0.275858
4.308	-0.033062	0.275858
4.309	-0.069623	0.275858
4.31	-0.0302523	0.27623
4.311	-0.00763275	0.275858
4.312	0.078556	0.275858
4.313	0.147173	0.275858
4.314	0.0144331	0.275858
4.315	-0.0946381	0.275858
4.316	-0.0963734	0.275858
4.317	-0.0183292	0.275858
4.318	0.0263829	0.275858
4.319	0.0194043	0.275858
4.32	-0.0204339	0.275858
4.321	-0.0305882	0.275858
4.322	0.0755959	0.275858
4.323	0.0777359	0.275858
4.324	0.0219267	0.275858
4.325	-0.0364365	0.275858
4.326	-0.0962657	0.275858
4.327	-0.107579	0.275858
4.328	0.00262167	0.275858
4.329	0.154419	0.275858
4.33	0.0923919	0.275858
4.331	-0.0565961	0.275858
4.332	-0.0983812	0.275858
4.333	-0.0319709	0.275858
4.334	0.0349198	0.275858
4.335	0.10645	0.275858
4.336	0.0263873	0.275858
4.337	-0.117069	0.275858
4.338	-0.110714	0.275858
4.339	0.07977	0.275858
4.34	0.112039	0.275858
4.341	0.032246	0.275858
4.342	-0.064954	0.275858
4.343	-0.1042	0.275858
4.344	-0.0285716	0.275858
4.345	0.108337	0.275858
4.346	0.120649	0.275858
4.347	-0.0553817	0.275858
4.348	-0.111173	0.275858
4.349	-0.0407899	0.275858
4.35	0.0590609	0.275858
4.351	0.0681353	0.275858
4.352	-0.00290972	0.275858
4.353	-0.0664081	0.275858
4.354	-0.0804406	0.275858
4.355	0.0683124	0.275858
4.356	0.15149	0.275858
4.357	0.0466256	0.275858
4.358	-0.0982288	0.275858
4.359	-0.169145	0.275858
4.36	-0.117003	0.275858
4.361	0.0567762	0.275858
4.362	0.230969	0.275858
4.363	0.171403	0.275858
4.364	-0.065604	0.275858
4.365	-0.177381	0.275858
4.366	-0.119195	0.275858
4.367	0.00546288	0.275858
4.368	0.102282	0.275858
4.369	0.0728075	0.275858
4.37	-0.0278867	0.275858
4.371	-0.101337	0.275858
4.372	0.0287811	0.275858
4.373	0.118664	0.275858
4.374	0.0620693	0.275858
4.375	-0.0406189	0.275858
4.376	-0.121121	0.275858
4.377	-0.089669	0.275858
4.378	-0.00532813	0.275858
4.379	0.101238	0.275858
4.38	0.0533338	0.275858
4.381	-0.00842751	0.275858
4.382	0.0497882	0.275858
4.383	0.0409495	0.275858
4.384	-0.0896169	0.275858
4.385	-0.0606579	0.275858
4.386	-0.0398964	0.275858
4.387	-0.0122172	0.275858
4.388	0.0405103	0.275858
4.389	0.0912384	0.275858
4.39	0.0612995	0.275858
4.391	-0.0135273	0.275858
4.392	-0.115223	0.275858
4.393	-0.0957488	0.275858
4.394	0.00922865	0.275858
4.395	0.114487	0.275858
4.396	0.139136	0.275858
4.397	-0.0232535	0.275858
4.398	-0.147958	0.275858
4.399	-0.0963674	0.275858
4.4	0.0629895	0.275858
4.401	0.0875326	0.275858
4.402	0.057352	0.275858
4.403	-0.0186478	0.275858
4.404	-0.130538	0.275858
4.405	-0.0715943	0.275858
4.406	0.0735829	0.275858
4.407	0.139417	0.275858
4.408	0.0599524	0.275858
4.409	-0.0525588	0.275858
4.41	-0.109399	0.275858
4.411	-0.0735935	0.275858
4.412	0.0695962	0.275858
4.413	0.0816195	0.275858
4.414	-0.0463428	0.275858
4.415	-0.098516	0.275858
4.416	0.00727868	0.275858
4.417	0.10619	0.275858
4.418	0.0911097	0.275858
4.419	0.0332964	0.275858
4.42	-0.0680675	0.275858
4.421	-0.136365	0.275858
4.422	-0.0810012	0.275858
4.423	0.00311176	0.275858
4.424	0.160764	0.275858
4.425	0.0579533	0.275858
4.426	-0.0520331	0.275858
4.427	-0.0332098	0.275858
4.428	-0.015736	0.275858
4.429	0.0577563	0.275858
4.43	0.0450665	0.275858
4.431	-0.0675523	0.275858
4.432	-0.0934312	0.275858
4.433	-0.0340134	0.275858
4.434	0.0644949	0.275858
4.435	0.12825	0.275858
4.436	0.0310768	0.275858
4.437	-0.106763	0.275858
4.438	-0.108776	0.275858
4.439	0.0681169	0.275858
4.44	0.108263	0.275858
4.441	-0.000622848	0.275858
4.442	-0.107427	0.275858
4.443	-0.0682838	0.275858
4.444	0.0344743	0.275858
4.445	0.12508	0.275858
4.446	0.110257	0.275858
4.447	-0.0937766	0.275858
4.448	-0.163306	0.275858
4.449	-0.0228701	0.275858
4.45	0.0744317	0.275858
4.451	0.061863	0.275858
4.452	0.0384228	0.275858
4.453	-0.0135135	0.275858
4.454	-0.0915608	0.275858
4.455	0.00200686	0.275858
4.456	0.101871	0.275858
4.457	0.0230433	0.275858
4.458	-0.0449404	0.275858
4.459	-0.071845	0.275858
4.46	-0.0962354	0.275858
4.461	0.0145877	0.275858
4.462	0.146647	0.275858
4.463	0.116196	0.275858
4.464	-0.0567888	0.275858
4.465	-0.108498	0.275858
4.466	-0.0311482	0.275858
4.467	0.0331135	0.275858
4.468	0.0501504	0.275858
4.469	-0.00937304	0.275858
4.47	-0.083259	0.275858
4.471	-0.0818709	0.275858
4.472	0.101462	0.275858
4.473	0.151534	0.275858
4.474	0.0132679	0.275858
4.475	-0.0559524	0.275858
4.476	-0.0978984	0.275858
4.477	-0.064721	0.275858
4.478	0.0334451	0.275858
4.479	0.040537	0.275858
4.48	-0.0132769	0.275858
4.481	0.0185007	0.275858
4.482	0.019807	0.275858
4.483	0.0626165	0.275858
4.484	0.0517981	0.275858
4.485	-0.0690678	0.275858
4.486	-0.0907908	0.275858
4.487	-0.064844	0.275858
4.488	-0.027651	0.275858
4.489	0.076352	0.275858
4.49	0.0945593	0.275858
4.491	0.0589246	0.275858
4.492	-0.00162134	0.275858
4.493	-0.0805192	0.275858
4.494	-0.0648899	0.275858
4.495	-0.0106239	0.275858
4.496	0.0794952	0.275858
4.497	0.0249394	0.275858
4.498	-0.067281	0.275858
4.499	-0.0470826	0.275858
4.5	0.0262234	0.275858
4.501	0.0939846	0.275858
4.502	0.0704485	0.275858
4.503	-0.0671045	0.275858
4.504	-0.186718	0.275858
4.505	-0.0142774	0.275858
4.506	0.149575	0.275858
4.507	0.10865	0.275858
4.508	0.0327008	0.275858
4.509	-0.0576974	0.275858
4.51	-0.142712	0.275858
4.511	-0.116299	0.275858
4.512	0.10192	0.275858
4.513	0.164246	0.275858
4.514	-0.0786891	0.275858
4.515	-0.113421	0.275858
4.516	0.0670241	0.275858
4.517	0.119167	0.275858
4.518	0.0689747	0.275858
4.519	-0.0110112	0.275858
4.52	-0.151133	0.275858
4.521	-0.192759	0.275858
4.522	0.0232249	0.275858
4.523	0.133739	0.275858
4.524	0.128361	0.275858
4.525	0.0245569	0.275858
4.526	-0.0579237	0.275858
4.527	-0.0774819	0.275858
4.528	-0.0222972	0.275858
4.529	0.0824621	0.275858
4.53	0.0445321	0.275858
4.531	-0.0689114	0.275858
4.532	-0.101288	0.275858
4.533	-0.0113141	0.275858
4.534	0.0861127	0.275858
4.535	0.111497	0.275858
4.536	-0.00671922	0.275858
4.537	-0.121802	0.275858
4.538	-0.0697196	0.275858
4.539	0.0720323	0.275483
4.54	0.0833552	0.275858
4.541	0.0359789	0.275858
4.542	-0.0367319	0.275858
4.543	-0.0869745	0.275858
4.544	-0.0459001	0.275858
4.545	0.0406596	0.275858
4.546	0.0829614	0.275858
4.547	-0.0820109	0.275858
4.548	-0.0769399	0.275858
4.549	0.0969709	0.275858
4.55	0.200326	0.275858
4.551	0.0372093	0.275858
4.552	-0.145774	0.275858
4.553	-0.193411	0.275858
4.554	-0.166253	0.275858
4.555	0.0988849	0.275858
4.556	0.241267	0.275858
4.557	0.127587	0.275858
4.558	-0.00780637	0.275858
4.559	-0.124509	0.275858
4.56	-0.146127	0.275858
4.561	-0.0304802	0.275858
4.562	0.132223	0.275858
4.563	0.111829	0.275858
4.564	-0.0696156	0.275858
4.565	-0.125259	0.275858
4.566	-0.0244268	0.275858
4.567	0.0589838	0.275858
4.568	0.0768259	0.275858
4.569	0.0607392	0.275858
4.57	-0.0374521	0.275858
4.571	-0.103439	0.275858
4.572	0.0259411	0.275858
4.573	0.0612183	0.275858
4.574	0.00992276	0.275858
4.575	-0.0598108	0.275858
4.576	-0.107355	0.275858
4.577	-0.0195181	0.275858
4.578	0.104416	0.275858
4.579	0.201404	0.275858
4.58	0.00286917	0.275858
4.581	-0.119647	0.275858
4.582	-0.143978	0.275858
4.583	-0.0787249	0.275858
4.584	0.0785657	0.275858
4.585	0.168874	0.275858
4.586	0.0436831	0.275858
4.587	-0.113366	0.275858
4.588	-0.0796009	0.275858
4.589	0.0389875	0.275858
4.59	0.0660449	0.275858
4.591	0.0229844	0.275858
4.592	-0.0487178	0.275858
4.593	-0.0864871	0.275858
4.594	-0.0157665	0.275858
4.595	0.105609	0.275858
4.596	0.130554	0.275858
4.597	-0.0484057	0.275858
4.598	-0.13292	0.275858
4.599	-0.0754114	0.275858
4.6	0.0361068	0.275858
4.601	0.085047	0.275483
4.602	0.0702721	0.275483
4.603	-0.000395627	0.275858
4.604	-0.118653	0.275858
4.605	-0.0346076	0.275858
4.606	0.0735541	0.275858
4.607	0.0692338	0.275858
4.608	0.016892	0.275858
4.609	-0.0837085	0.275858
4.61	-0.0940466	0.275858
4.611	-0.000557216	0.275858
4.612	0.112028	0.275858
4.613	0.0816963	0.275858
4.614	-0.0616359	0.275858
4.615	-0.0821118	0.275858
4.616	-0.000532403	0.275858
4.617	0.0658475	0.275858
4.618	0.0666505	0.275858
4.619	-0.00884317	0.275858
4.62	-0.113071	0.275858
4.621	-0.135282	0.275858
4.622	0.0775464	0.275858
4.623	0.166473	0.275858
4.624	0.0601293	0.275858
4.625	-0.0536887	0.275858
4.626	-0.0943629	0.275858
4.627	-0.0589363	0.275858
4.628	0.012225	0.275858
4.629	0.118295	0.275858
4.63	-0.00300246	0.275858
4.631	-0.094516	0.275858
4.632	-0.0657904	0.275858
4.633	0.063771	0.275858
4.634	0.13325	0.275858
4.635	0.0873872	0.275483
4.636	-0.0676468	0.275858
4.637	-0.21679	0.275858
4.638	-0.0975935	0.275858
4.639	0.12863	0.275858
4.64	0.137064	0.275483
4.641	0.0356973	0.275858
