Time	EMG	Muscle Force
0	0	0.279967
0.001	0	0.279967
0.002	0	0.279967
0.003	0	0.279967
0.004	0	0.279967
0.005	0	0.279594
0.006	0	0.279594
0.007	0	0.279594
0.008	0	0.279594
0.009	0	0.27922
0.01	0	0.27922
0.011	0	0.27922
0.012	0	0.278847
0.013	0	0.278847
0.014	0	0.278847
0.015	0	0.278473
0.016	0	0.278473
0.017	0	0.278473
0.018	0	0.278473
0.019	0	0.278099
0.02	0	0.278099
0.021	0	0.278099
0.022	0	0.278099
0.023	0	0.277726
0.024	0	0.277726
0.025	0	0.277726
0.026	0	0.277726
0.027	0	0.277726
0.028	0	0.277352
0.029	0	0.277726
0.03	0	0.277352
0.031	0	0.277352
0.032	0	0.277352
0.033	0	0.277352
0.034	0	0.277352
0.035	0	0.277352
0.036	0	0.276978
0.037	0	0.276978
0.038	0	0.276978
0.039	0	0.276978
0.04	0	0.276978
0.041	0	0.276978
0.042	0	0.276978
0.043	0	0.276978
0.044	0	0.276978
0.045	0	0.276978
0.046	0	0.276605
0.047	0	0.276605
0.048	0	0.276978
0.049	0	0.276978
0.05	0	0.276978
0.051	0.182261	0.276605
0.052	-0.000140635	0.276605
0.053	-0.166439	0.276605
0.054	-0.107733	0.276605
0.055	0.0502364	0.276605
0.056	0.122559	0.276605
0.057	0.10302	0.276605
0.058	-0.018395	0.276605
0.059	-0.169035	0.276605
0.06	-0.11035	0.276605
0.061	0.113944	0.276605
0.062	0.131218	0.276605
0.063	0.0179103	0.276605
0.064	-0.0778398	0.276605
0.065	-0.108318	0.276605
0.066	-0.022254	0.276605
0.067	0.128838	0.276605
0.068	0.162824	0.276605
0.069	-0.0967863	0.276605
0.07	-0.18252	0.276605
0.071	-0.0512013	0.276605
0.072	0.0888889	0.276605
0.073	0.132237	0.276605
0.074	0.0709735	0.276605
0.075	-0.0613261	0.276605
0.076	-0.19269	0.276605
0.077	-0.0348885	0.276605
0.078	0.143153	0.276605
0.079	0.110171	0.276605
0.08	-0.0132034	0.276605
0.081	-0.11087	0.276605
0.082	-0.0912501	0.276605
0.083	0.0170131	0.276605
0.084	0.15995	0.276605
0.085	0.0971039	0.276605
0.086	-0.136036	0.276605
0.087	-0.158347	0.276605
0.088	0.00383079	0.276605
0.089	0.115577	0.276605
0.09	0.124678	0.276605
0.091	0.0251364	0.276605
0.092	-0.125942	0.276605
0.093	-0.187988	0.276605
0.094	0.0583642	0.276605
0.095	0.155623	0.276605
0.096	0.0727307	0.276605
0.097	-0.045118	0.276605
0.098	-0.111869	0.276605
0.099	-0.0596237	0.276605
0.1	0.0628963	0.276605
0.101	0.171112	0.276605
0.102	-0.0211338	0.276605
0.103	-0.173555	0.276605
0.104	-0.0951941	0.276605
0.105	0.0819138	0.276605
0.106	0.149128	0.276605
0.107	0.0701179	0.276605
0.108	-0.0597423	0.276605
0.109	-0.169209	0.276605
0.11	-0.0768703	0.276605
0.111	0.142676	0.276605
0.112	0.118079	0.276605
0.113	-0.00193773	0.276605
0.114	-0.0862562	0.276605
0.115	-0.111431	0.276605
0.116	-0.0156072	0.276605
0.117	0.136958	0.276605
0.118	0.158909	0.276605
0.119	-0.0986497	0.276978
0.12	-0.17717	0.276605
0.121	-0.0496423	0.276605
0.122	0.0978054	0.276605
0.123	0.124908	0.276605
0.124	0.0630809	0.276605
0.125	-0.0674856	0.276605
0.126	-0.191527	0.276605
0.127	-0.014024	0.276605
0.128	0.140146	0.276605
0.129	0.0848802	0.276605
0.13	-0.0201997	0.276605
0.131	-0.092427	0.276605
0.132	-0.0787423	0.276605
0.133	0.0291362	0.276605
0.134	0.165995	0.276605
0.135	0.0680723	0.276605
0.136	-0.153479	0.276605
0.137	-0.146987	0.276605
0.138	0.0153226	0.276605
0.139	0.11467	0.276605
0.14	0.120227	0.276605
0.141	0.0239912	0.276605
0.142	-0.125794	0.276605
0.143	-0.169143	0.276605
0.144	0.0675304	0.276605
0.145	0.148311	0.276605
0.146	0.0531247	0.276605
0.147	-0.0575124	0.276605
0.148	-0.115246	0.276605
0.149	-0.0536565	0.276605
0.15	0.0797057	0.276605
0.151	0.180532	0.276605
0.152	-0.0105882	0.276605
0.153	-0.167278	0.276605
0.154	-0.111004	0.276605
0.155	0.0491386	0.276605
0.156	0.125815	0.276605
0.157	0.101882	0.276605
0.158	-0.0177113	0.276605
0.159	-0.169636	0.276605
0.16	-0.100363	0.276605
0.161	0.127169	0.276605
0.162	0.127102	0.276605
0.163	0.00232623	0.276605
0.164	-0.0907217	0.276605
0.165	-0.111331	0.276605
0.166	-0.00902437	0.276605
0.167	0.137	0.276605
0.168	0.148115	0.276605
0.169	-0.0938698	0.276605
0.17	-0.167745	0.276605
0.171	-0.0441776	0.276605
0.172	0.085619	0.276605
0.173	0.127855	0.276605
0.174	0.0579117	0.276605
0.175	-0.082724	0.276605
0.176	-0.190002	0.276605
0.177	-0.00254318	0.276605
0.178	0.150646	0.276605
0.179	0.0950143	0.276605
0.18	-0.0220254	0.276605
0.181	-0.102918	0.276605
0.182	-0.090983	0.276605
0.183	0.014927	0.276605
0.184	0.163352	0.276605
0.185	0.080187	0.276605
0.186	-0.13291	0.276605
0.187	-0.13476	0.276605
0.188	0.00654921	0.276605
0.189	0.0953635	0.276605
0.19	0.111538	0.276605
0.191	0.0177208	0.276605
0.192	-0.120244	0.276605
0.193	-0.14957	0.276605
0.194	0.0750876	0.276605
0.195	0.140143	0.276605
0.196	0.0442892	0.276605
0.197	-0.0640598	0.276605
0.198	-0.115009	0.276605
0.199	-0.0457145	0.276605
0.2	0.0879184	0.276605
0.201	0.17856	0.276605
0.202	-0.0263729	0.276605
0.203	-0.168778	0.276605
0.204	-0.099322	0.276605
0.205	0.0503181	0.276605
0.206	0.125437	0.276605
0.207	0.105894	0.276605
0.208	-0.0212823	0.276605
0.209	-0.16971	0.276605
0.21	-0.0955886	0.276605
0.211	0.103348	0.276605
0.212	0.124034	0.276605
0.213	0.0247359	0.276605
0.214	-0.0889418	0.276605
0.215	-0.1044	0.276605
0.216	-0.00375276	0.276605
0.217	0.135093	0.276605
0.218	0.127776	0.276605
0.219	-0.109247	0.276605
0.22	-0.159897	0.276605
0.221	-0.0310295	0.276605
0.222	0.0877269	0.276605
0.223	0.126788	0.276605
0.224	0.062979	0.276605
0.225	-0.0774182	0.276605
0.226	-0.190416	0.276605
0.227	-0.00251483	0.276605
0.228	0.143633	0.276605
0.229	0.0874033	0.276605
0.23	-0.0246982	0.276605
0.231	-0.114919	0.276605
0.232	-0.0920293	0.276605
0.233	0.0452964	0.276605
0.234	0.188363	0.276605
0.235	0.07516	0.276605
0.236	-0.156468	0.276605
0.237	-0.159757	0.276605
0.238	0.00171653	0.276605
0.239	0.116592	0.276605
0.24	0.131798	0.276605
0.241	0.0267438	0.276605
0.242	-0.136167	0.276605
0.243	-0.168193	0.276605
0.244	0.0749146	0.276605
0.245	0.145696	0.276605
0.246	0.0467143	0.276605
0.247	-0.0553638	0.276605
0.248	-0.111849	0.276605
0.249	-0.0507291	0.276605
0.25	0.0863029	0.276605
0.251	0.179943	0.276605
0.252	-0.0366057	0.276605
0.253	-0.172442	0.276605
0.254	-0.0886716	0.276605
0.255	0.0564816	0.276605
0.256	0.123133	0.276605
0.257	0.100822	0.276605
0.258	-0.0244259	0.276605
0.259	-0.18275	0.276605
0.26	-0.0872129	0.276605
0.261	0.129666	0.276605
0.262	0.122838	0.276605
0.263	0.00573664	0.276605
0.264	-0.0934861	0.276605
0.265	-0.110495	0.276605
0.266	-0.00923753	0.276605
0.267	0.144497	0.276605
0.268	0.151985	0.276605
0.269	-0.103261	0.276605
0.27	-0.17613	0.276605
0.271	-0.0452633	0.276605
0.272	0.0871165	0.276605
0.273	0.13105	0.276605
0.274	0.065633	0.276605
0.275	-0.0797123	0.276605
0.276	-0.190778	0.276605
0.277	0.00422828	0.276605
0.278	0.153029	0.276605
0.279	0.0901626	0.276605
0.28	-0.0370822	0.276605
0.281	-0.125955	0.276605
0.282	-0.0836927	0.276605
0.283	0.038918	0.276605
0.284	0.189445	0.276605
0.285	0.0798352	0.276605
0.286	-0.166509	0.276605
0.287	-0.140439	0.276605
0.288	0.0326876	0.276605
0.289	0.100101	0.276605
0.29	0.0977462	0.276605
0.291	0.00381959	0.276605
0.292	-0.142005	0.276605
0.293	-0.151254	0.276605
0.294	0.105675	0.276605
0.295	0.181436	0.276605
0.296	0.0507594	0.276605
0.297	-0.0823771	0.276605
0.298	-0.145746	0.276605
0.299	-0.0701846	0.276605
0.3	0.0831844	0.276605
0.301	0.185561	0.276605
0.302	-0.0119895	0.276605
0.303	-0.148584	0.276605
0.304	-0.0970142	0.276605
0.305	0.0527163	0.276605
0.306	0.148546	0.276605
0.307	0.134551	0.276605
0.308	-0.0774802	0.276605
0.309	-0.27103	0.276605
0.31	-0.103643	0.276605
0.311	0.187639	0.276605
0.312	0.178435	0.276605
0.313	0.0475514	0.276605
0.314	-0.082463	0.276605
0.315	-0.159357	0.276605
0.316	-0.0734807	0.276605
0.317	0.127334	0.276605
0.318	0.16783	0.276605
0.319	-0.0695263	0.276605
0.32	-0.124715	0.276605
0.321	-0.0422791	0.276605
0.322	0.0405123	0.276605
0.323	0.0960425	0.276605
0.324	0.0632421	0.276605
0.325	-0.0542288	0.276605
0.326	-0.166894	0.276605
0.327	0.0150235	0.276605
0.328	0.13794	0.276605
0.329	0.0667439	0.276605
0.33	-0.0426858	0.276605
0.331	-0.112007	0.276605
0.332	-0.0793712	0.276605
0.333	0.0494134	0.276605
0.334	0.193963	0.276605
0.335	0.0658198	0.276605
0.336	-0.167613	0.276605
0.337	-0.161907	0.276605
0.338	0.0151526	0.276605
0.339	0.123224	0.276605
0.34	0.128845	0.276605
0.341	0.0242706	0.276605
0.342	-0.142164	0.276605
0.343	-0.16933	0.276605
0.344	0.0810721	0.276605
0.345	0.154432	0.276605
0.346	0.0468097	0.276605
0.347	-0.0683669	0.276605
0.348	-0.125276	0.276605
0.349	-0.0511565	0.276605
0.35	0.0987402	0.276978
0.351	0.196712	0.276605
0.352	-0.035218	0.276605
0.353	-0.185201	0.276605
0.354	-0.0999752	0.276605
0.355	0.0696568	0.276605
0.356	0.1391	0.276605
0.357	0.0908865	0.276605
0.358	-0.0411417	0.276605
0.359	-0.192957	0.276605
0.36	-0.0872383	0.276605
0.361	0.141583	0.276605
0.362	0.136575	0.276605
0.363	0.0154182	0.276605
0.364	-0.0927695	0.276605
0.365	-0.123454	0.276605
0.366	-0.0215276	0.276605
0.367	0.144674	0.276605
0.368	0.152194	0.276605
0.369	-0.105153	0.276605
0.37	-0.167744	0.276605
0.371	-0.0367535	0.276605
0.372	0.0829038	0.276605
0.373	0.127218	0.276605
0.374	0.0646796	0.276605
0.375	-0.0776973	0.276605
0.376	-0.198409	0.276605
0.377	0.00845862	0.276605
0.378	0.151772	0.276605
0.379	0.085455	0.276605
0.38	-0.0280415	0.276605
0.381	-0.10914	0.276605
0.382	-0.101103	0.276605
0.383	0.0279286	0.276605
0.384	0.200323	0.276605
0.385	0.0759942	0.276605
0.386	-0.16558	0.276605
0.387	-0.153583	0.276605
0.388	0.0335861	0.276605
0.389	0.132404	0.276605
0.39	0.110921	0.276605
0.391	-0.0228444	0.276605
0.392	-0.165558	0.276605
0.393	-0.149894	0.276605
0.394	0.123716	0.276605
0.395	0.186106	0.276605
0.396	0.0542501	0.276605
0.397	-0.0814483	0.276605
0.398	-0.152034	0.276605
0.399	-0.0847193	0.276605
0.4	0.0794113	0.276605
0.401	0.199731	0.276605
0.402	-0.00119612	0.276605
0.403	-0.149532	0.276605
0.404	-0.0855071	0.276605
0.405	0.0563484	0.276605
0.406	0.123069	0.276605
0.407	0.0778635	0.276605
0.408	-0.0588807	0.276605
0.409	-0.20992	0.276605
0.41	-0.0751767	0.276605
0.411	0.175825	0.276605
0.412	0.147327	0.276605
0.413	0.0125804	0.276605
0.414	-0.106546	0.276605
0.415	-0.133632	0.276605
0.416	-0.0174853	0.276605
0.417	0.148282	0.276605
0.418	0.148898	0.276605
0.419	-0.107853	0.276605
0.42	-0.174383	0.276605
0.421	-0.0343426	0.276605
0.422	0.0969346	0.276605
0.423	0.137375	0.276605
0.424	0.0571198	0.276605
0.425	-0.0930862	0.276605
0.426	-0.197025	0.276605
0.427	0.0166845	0.276605
0.428	0.152476	0.276605
0.429	0.0798344	0.276605
0.43	-0.0395093	0.276605
0.431	-0.112856	0.276605
0.432	-0.0781315	0.276605
0.433	0.0468405	0.276605
0.434	0.191528	0.276605
0.435	0.0559167	0.276605
0.436	-0.16715	0.276605
0.437	-0.14809	0.276605
0.438	0.0212153	0.276605
0.439	0.120109	0.276605
0.44	0.118408	0.276605
0.441	0.00794578	0.276605
0.442	-0.141478	0.276605
0.443	-0.14619	0.276605
0.444	0.0935359	0.276605
0.445	0.143072	0.276605
0.446	0.0357478	0.276605
0.447	-0.0698948	0.276605
0.448	-0.116759	0.276605
0.449	-0.0464094	0.276605
0.45	0.0962262	0.276605
0.451	0.186817	0.276605
0.452	-0.0360602	0.276605
0.453	-0.179558	0.276605
0.454	-0.093306	0.276605
0.455	0.0663486	0.276605
0.456	0.129667	0.276605
0.457	0.0886915	0.276605
0.458	-0.0364544	0.276605
0.459	-0.183638	0.276605
0.46	-0.0706818	0.276605
0.461	0.135018	0.276605
0.462	0.123076	0.276605
0.463	-0.00179174	0.276605
0.464	-0.105512	0.276605
0.465	-0.103745	0.276605
0.466	0.00686025	0.276605
0.467	0.145635	0.276605
0.468	0.124589	0.276605
0.469	-0.108873	0.276605
0.47	-0.160468	0.276605
0.471	-0.0273451	0.276605
0.472	0.0849832	0.276605
0.473	0.122017	0.276605
0.474	0.0530607	0.276605
0.475	-0.0833848	0.276605
0.476	-0.186239	0.276605
0.477	0.0268842	0.276605
0.478	0.155663	0.276605
0.479	0.0659412	0.276605
0.48	-0.0561883	0.276605
0.481	-0.112875	0.276605
0.482	-0.0683169	0.276605
0.483	0.0613023	0.276605
0.484	0.190471	0.276605
0.485	0.0467743	0.276605
0.486	-0.15892	0.276605
0.487	-0.157366	0.276605
0.488	0.01299	0.276605
0.489	0.124831	0.276605
0.49	0.133963	0.276605
0.491	0.00874779	0.276605
0.492	-0.158102	0.276605
0.493	-0.139314	0.276605
0.494	0.0965702	0.276605
0.495	0.142495	0.276605
0.496	0.0446845	0.276605
0.497	-0.0736221	0.276605
0.498	-0.139035	0.276605
0.499	-0.0529614	0.276605
0.5	0.119424	0.27623
0.501	0.201824	0.27623
0.502	-0.0381551	0.276605
0.503	-0.18611	0.276605
0.504	-0.10406	0.276605
0.505	0.0613686	0.276605
0.506	0.137593	0.27623
0.507	0.0977413	0.27623
0.508	-0.0478176	0.276605
0.509	-0.191209	0.276605
0.51	-0.0616588	0.276605
0.511	0.137098	0.276605
0.512	0.118302	0.276605
0.513	0.00134898	0.276605
0.514	-0.0929035	0.276605
0.515	-0.111574	0.276605
0.516	0.00121465	0.276605
0.517	0.157915	0.276605
0.518	0.119391	0.276605
0.519	-0.130906	0.276605
0.52	-0.171726	0.276605
0.521	-0.0149077	0.276605
0.522	0.110533	0.276605
0.523	0.135349	0.276605
0.524	0.0474523	0.276605
0.525	-0.105761	0.276605
0.526	-0.195869	0.276605
0.527	0.0276264	0.276605
0.528	0.152887	0.276605
0.529	0.0786521	0.276605
0.53	-0.0387504	0.276605
0.531	-0.11252	0.276605
0.532	-0.0727996	0.276605
0.533	0.0521949	0.276605
0.534	0.17998	0.276605
0.535	0.0293104	0.276605
0.536	-0.163606	0.276605
0.537	-0.12717	0.276605
0.538	0.0383974	0.276605
0.539	0.12282	0.276605
0.54	0.112103	0.276605
0.541	0.00308636	0.276605
0.542	-0.156552	0.276605
0.543	-0.146755	0.276605
0.544	0.0966756	0.276605
0.545	0.144919	0.276605
0.546	0.0325466	0.276605
0.547	-0.0719781	0.276605
0.548	-0.109695	0.276605
0.549	-0.0313705	0.276605
0.55	0.107983	0.276605
0.551	0.166863	0.276605
0.552	-0.0624306	0.276605
0.553	-0.171096	0.276605
0.554	-0.0750978	0.276605
0.555	0.0681255	0.276605
0.556	0.127219	0.276605
0.557	0.0827537	0.276605
0.558	-0.0481175	0.276605
0.559	-0.186644	0.276605
0.56	-0.0499379	0.276605
0.561	0.143371	0.276605
0.562	0.113957	0.276605
0.563	-0.00595312	0.276605
0.564	-0.0982111	0.276605
0.565	-0.106009	0.276605
0.566	-0.00591871	0.276605
0.567	0.149573	0.276605
0.568	0.120123	0.276605
0.569	-0.117717	0.27623
0.57	-0.151162	0.276605
0.571	-0.00669247	0.276605
0.572	0.0982978	0.276605
0.573	0.113325	0.27623
0.574	0.0385696	0.276605
0.575	-0.101757	0.27623
0.576	-0.186338	0.276605
0.577	0.0382128	0.276605
0.578	0.147317	0.27623
0.579	0.0769561	0.276605
0.58	-0.0324108	0.276605
0.581	-0.127826	0.27623
0.582	-0.0726453	0.27623
0.583	0.0618183	0.276605
0.584	0.19474	0.276605
0.585	0.0318542	0.276605
0.586	-0.16859	0.276605
0.587	-0.145028	0.276605
0.588	0.0169947	0.276605
0.589	0.129597	0.276605
0.59	0.128144	0.27623
0.591	0.00461379	0.276605
0.592	-0.150284	0.276605
0.593	-0.133832	0.276605
0.594	0.0997837	0.27623
0.595	0.128559	0.27623
0.596	0.0274666	0.27623
0.597	-0.0753376	0.27623
0.598	-0.117532	0.276605
0.599	-0.0344758	0.276605
0.6	0.118049	0.276605
0.601	0.184255	0.276605
0.602	-0.0590023	0.276605
0.603	-0.185064	0.276605
0.604	-0.0813537	0.276605
0.605	0.0711042	0.276605
0.606	0.130897	0.276605
0.607	0.0838693	0.276605
0.608	-0.0485712	0.276605
0.609	-0.190808	0.276605
0.61	-0.0425192	0.276605
0.611	0.152651	0.276605
0.612	0.106743	0.276605
0.613	-0.0214048	0.276605
0.614	-0.11255	0.276605
0.615	-0.105223	0.276605
0.616	0.0170484	0.276605
0.617	0.17584	0.276605
0.618	0.119329	0.276605
0.619	-0.132191	0.276605
0.62	-0.167746	0.276605
0.621	-0.0129791	0.276605
0.622	0.0968687	0.276605
0.623	0.121017	0.276605
0.624	0.0427042	0.276605
0.625	-0.104551	0.276605
0.626	-0.186024	0.276605
0.627	0.0454628	0.276605
0.628	0.157221	0.276605
0.629	0.0735348	0.276605
0.63	-0.0473593	0.276605
0.631	-0.122208	0.27623
0.632	-0.0761597	0.276605
0.633	0.0606089	0.276605
0.634	0.195141	0.276605
0.635	0.0233448	0.276605
0.636	-0.172342	0.276605
0.637	-0.129409	0.276605
0.638	0.0385362	0.276605
0.639	0.127138	0.276605
0.64	0.115965	0.27623
0.641	-0.00289736	0.27623
0.642	-0.163111	0.27623
0.643	-0.140355	0.276605
0.644	0.10442	0.276605
0.645	0.141712	0.276605
0.646	0.0284846	0.27623
0.647	-0.0778558	0.276605
0.648	-0.108096	0.27623
0.649	-0.0191716	0.276605
0.65	0.128555	0.276605
0.651	0.174002	0.276605
0.652	-0.084362	0.276605
0.653	-0.211713	0.276605
0.654	-0.106803	0.276605
0.655	0.0634864	0.276605
0.656	0.149763	0.276605
0.657	0.14377	0.276605
0.658	0.0577038	0.276605
0.659	-0.124556	0.276605
0.66	-0.236567	0.276605
0.661	-0.0562272	0.276605
0.662	0.163877	0.276605
0.663	0.140933	0.276605
0.664	0.00612156	0.276605
0.665	-0.103084	0.276605
0.666	-0.101154	0.276605
0.667	0.0085803	0.276605
0.668	0.160763	0.276605
0.669	0.109293	0.276605
0.67	-0.147053	0.276605
0.671	-0.17115	0.276605
0.672	-0.00420912	0.276605
0.673	0.11129	0.276605
0.674	0.138917	0.276605
0.675	0.0458877	0.276605
0.676	-0.119072	0.276605
0.677	-0.198331	0.276605
0.678	0.0459601	0.276605
0.679	0.155751	0.276605
0.68	0.0686606	0.276605
0.681	-0.03686	0.276605
0.682	-0.111855	0.276605
0.683	-0.0839384	0.276605
0.684	0.060071	0.276605
0.685	0.206214	0.276605
0.686	0.0175141	0.276605
0.687	-0.184229	0.276605
0.688	-0.132417	0.276605
0.689	0.0516856	0.276605
0.69	0.137026	0.276605
0.691	0.109588	0.276605
0.692	-0.0127746	0.276605
0.693	-0.17158	0.276605
0.694	-0.137917	0.276605
0.695	0.115059	0.276605
0.696	0.156823	0.276605
0.697	0.0359684	0.27623
0.698	-0.0862473	0.27623
0.699	-0.124416	0.276605
0.7	-0.0354877	0.27623
0.701	0.118767	0.27623
0.702	0.177693	0.27623
0.703	-0.0789545	0.27623
0.704	-0.184671	0.276605
0.705	-0.0661839	0.276605
0.706	0.0864966	0.27623
0.707	0.141429	0.276605
0.708	0.08542	0.27623
0.709	-0.0630808	0.276605
0.71	-0.212355	0.27623
0.711	-0.0504187	0.276605
0.712	0.15349	0.27623
0.713	0.120745	0.27623
0.714	-0.00299853	0.27623
0.715	-0.101611	0.276605
0.716	-0.1105	0.276605
0.717	-0.000660393	0.276605
0.718	0.161811	0.276605
0.719	0.116174	0.276605
0.72	-0.129783	0.276605
0.721	-0.159069	0.276605
0.722	-0.0088558	0.276605
0.723	0.105267	0.276605
0.724	0.134727	0.276605
0.725	0.0477623	0.276605
0.726	-0.12082	0.276605
0.727	-0.207534	0.276605
0.728	0.0339097	0.276605
0.729	0.16196	0.276605
0.73	0.0852832	0.276605
0.731	-0.048498	0.276605
0.732	-0.116268	0.276605
0.733	-0.0472972	0.276605
0.734	0.094042	0.276605
0.735	0.170408	0.276605
0.736	-0.0467462	0.276605
0.737	-0.195127	0.276605
0.738	-0.103813	0.276605
0.739	0.0783522	0.276605
0.74	0.151748	0.276605
0.741	0.114252	0.276605
0.742	-0.0191276	0.276605
0.743	-0.180982	0.276605
0.744	-0.14139	0.276605
0.745	0.103151	0.276605
0.746	0.142543	0.276605
0.747	0.0315615	0.276605
0.748	-0.0738683	0.276605
0.749	-0.0995944	0.276605
0.75	-0.0194345	0.276605
0.751	0.120342	0.276605
0.752	0.159186	0.276605
0.753	-0.108082	0.276605
0.754	-0.196368	0.276605
0.755	-0.0417054	0.276605
0.756	0.107613	0.276605
0.757	0.141889	0.276605
0.758	0.0707949	0.276605
0.759	-0.0712936	0.276605
0.76	-0.210236	0.276605
0.761	-0.035154	0.276605
0.762	0.15954	0.276605
0.763	0.108798	0.276605
0.764	-0.0210659	0.276605
0.765	-0.102581	0.276605
0.766	-0.0948181	0.276605
0.767	0.00710799	0.276605
0.768	0.169253	0.276605
0.769	0.105921	0.276605
0.77	-0.142377	0.276605
0.771	-0.150336	0.276605
0.772	0.00671593	0.276605
0.773	0.0983768	0.276605
0.774	0.107372	0.27623
0.775	0.0315918	0.27623
0.776	-0.113998	0.276605
0.777	-0.182079	0.276605
0.778	0.0708124	0.27623
0.779	0.166917	0.276605
0.78	0.0566	0.27623
0.781	-0.0650546	0.27623
0.782	-0.121324	0.27623
0.783	-0.0598927	0.27623
0.784	0.0671819	0.27623
0.785	0.189588	0.27623
0.786	0.00864472	0.27623
0.787	-0.171863	0.27623
0.788	-0.118728	0.27623
0.789	0.0399955	0.27623
0.79	0.11143	0.27623
0.791	0.119332	0.27623
0.792	0.0100899	0.27623
0.793	-0.159774	0.27623
0.794	-0.12875	0.27623
0.795	0.106988	0.27623
0.796	0.128999	0.27623
0.797	0.00604948	0.27623
0.798	-0.083194	0.27623
0.799	-0.100566	0.27623
0.8	-0.0164715	0.27623
0.801	0.132645	0.276605
0.802	0.168252	0.27623
0.803	-0.0948382	0.27623
0.804	-0.185484	0.276605
0.805	-0.0520669	0.27623
0.806	0.0862948	0.27623
0.807	0.132685	0.27623
0.808	0.0651553	0.27623
0.809	-0.0717204	0.27623
0.81	-0.191912	0.27623
0.811	-0.0175732	0.27623
0.812	0.151967	0.27623
0.813	0.104214	0.27623
0.814	-0.0213764	0.27623
0.815	-0.113645	0.27623
0.816	-0.0977008	0.27623
0.817	0.0148643	0.27623
0.818	0.171988	0.27623
0.819	0.113259	0.27623
0.82	-0.135392	0.27623
0.821	-0.172584	0.27623
0.822	-0.00533713	0.27623
0.823	0.119664	0.27623
0.824	0.132433	0.27623
0.825	0.00874209	0.27623
0.826	-0.150466	0.27623
0.827	-0.175842	0.27623
0.828	0.0958359	0.27623
0.829	0.180754	0.27623
0.83	0.0805178	0.27623
0.831	-0.0529868	0.27623
0.832	-0.149371	0.27623
0.833	-0.12836	0.27623
0.834	0.0397423	0.276605
0.835	0.23671	0.27623
0.836	0.0442457	0.27623
0.837	-0.151944	0.27623
0.838	-0.096877	0.27623
0.839	0.0540116	0.27623
0.84	0.0767385	0.27623
0.841	0.054953	0.27623
0.842	0.00649859	0.276605
0.843	-0.144357	0.27623
0.844	-0.131491	0.276605
0.845	0.0966378	0.276605
0.846	0.167205	0.276605
0.847	0.0723754	0.276605
0.848	-0.0615443	0.276605
0.849	-0.137038	0.276605
0.85	-0.0809401	0.27623
0.851	0.0796941	0.276605
0.852	0.183231	0.276605
0.853	-0.050349	0.276605
0.854	-0.190424	0.276605
0.855	-0.06389	0.27623
0.856	0.125927	0.276605
0.857	0.168909	0.276605
0.858	0.0707444	0.276605
0.859	-0.0958864	0.276605
0.86	-0.244057	0.276605
0.861	-0.0466334	0.276605
0.862	0.18343	0.276605
0.863	0.119048	0.276605
0.864	-0.0404538	0.276605
0.865	-0.125582	0.276605
0.866	-0.0704416	0.276605
0.867	0.0670163	0.276605
0.868	0.185812	0.276605
0.869	0.0688499	0.276605
0.87	-0.169255	0.276605
0.871	-0.177636	0.276605
0.872	-0.00976259	0.276605
0.873	0.12849	0.276605
0.874	0.138109	0.276605
0.875	0.0236325	0.276605
0.876	-0.122791	0.276605
0.877	-0.171978	0.27623
0.878	0.0695227	0.276605
0.879	0.163427	0.27623
0.88	0.0653517	0.27623
0.881	-0.0623632	0.276605
0.882	-0.135945	0.276605
0.883	-0.0772097	0.276605
0.884	0.0651107	0.27623
0.885	0.196206	0.276605
0.886	0.0168408	0.276605
0.887	-0.157177	0.276605
0.888	-0.104872	0.276605
0.889	0.0492351	0.276605
0.89	0.105494	0.276605
0.891	0.0720121	0.276605
0.892	-0.021331	0.276605
0.893	-0.148115	0.276605
0.894	-0.0831407	0.276605
0.895	0.131455	0.276605
0.896	0.134942	0.276605
0.897	0.00110522	0.276605
0.898	-0.110631	0.276605
0.899	-0.122153	0.276605
0.9	-0.0312349	0.276605
0.901	0.118434	0.276605
0.902	0.183365	0.276605
0.903	-0.0406653	0.276605
0.904	-0.156947	0.276605
0.905	-0.0728815	0.276605
0.906	0.0504587	0.27623
0.907	0.12877	0.27623
0.908	0.0877264	0.27623
0.909	-0.0807392	0.276605
0.91	-0.227995	0.27623
0.911	-0.0429241	0.27623
0.912	0.156228	0.276605
0.913	0.156734	0.276605
0.914	0.0222541	0.276605
0.915	-0.098289	0.27623
0.916	-0.115091	0.27623
0.917	-0.0139478	0.27623
0.918	0.152892	0.276605
0.919	0.0814687	0.276605
0.92	-0.153964	0.276605
0.921	-0.17205	0.27623
0.922	0.0181669	0.276605
0.923	0.162285	0.276605
0.924	0.171034	0.276605
0.925	0.0380984	0.276605
0.926	-0.199806	0.276605
0.927	-0.203284	0.276605
0.928	0.0741024	0.276605
0.929	0.163681	0.276605
0.93	0.078155	0.276605
0.931	-0.0430321	0.276605
0.932	-0.106295	0.276605
0.933	-0.109102	0.276605
0.934	-0.0225307	0.276605
0.935	0.172768	0.276605
0.936	0.157954	0.276605
0.937	0.00732456	0.276605
0.938	-0.139542	0.276605
0.939	-0.115562	0.276605
0.94	-0.0170709	0.276605
0.941	0.0441376	0.276605
0.942	0.0946814	0.276605
0.943	-0.0868909	0.276605
0.944	-0.104101	0.276605
0.945	0.182863	0.276605
0.946	0.165505	0.276605
0.947	-0.0335407	0.276605
0.948	-0.170614	0.276605
0.949	-0.101168	0.276605
0.95	0.0104866	0.276605
0.951	0.0976402	0.276605
0.952	0.0686273	0.276605
0.953	-0.069253	0.276605
0.954	-0.0575492	0.276605
0.955	-0.00867597	0.276605
0.956	0.0638436	0.276605
0.957	0.127798	0.276605
0.958	0.0483901	0.276605
0.959	-0.139074	0.276605
0.96	-0.218279	0.276605
0.961	0.0830786	0.276605
0.962	0.164329	0.276605
0.963	-0.021076	0.276605
0.964	-0.109018	0.276605
0.965	0.0114222	0.276605
0.966	0.0804614	0.276605
0.967	0.0779665	0.276605
0.968	0.0591745	0.276605
0.969	-0.143766	0.276605
0.97	-0.159437	0.276605
0.971	-0.0412957	0.276605
0.972	0.106837	0.276605
0.973	0.113669	0.276605
0.974	0.0862684	0.276605
0.975	0.0263533	0.276605
0.976	-0.143428	0.276605
0.977	-0.172588	0.276605
0.978	0.113247	0.276605
0.979	0.124067	0.276605
0.98	-0.0410779	0.276605
0.981	-0.0897765	0.276605
0.982	-0.05905	0.276605
0.983	0.0251296	0.276605
0.984	0.161817	0.276605
0.985	0.166903	0.276605
0.986	-0.149212	0.276605
0.987	-0.23472	0.276605
0.988	-0.0331521	0.276605
0.989	0.102451	0.276605
0.99	0.143331	0.276605
0.991	0.0502611	0.27623
0.992	-0.0458637	0.276605
0.993	-0.154474	0.27623
0.994	-0.0601861	0.27623
0.995	0.130648	0.27623
0.996	0.0778095	0.27623
0.997	0.0133126	0.27623
0.998	-0.0463236	0.27623
0.999	-0.130435	0.27623
1	-0.0127088	0.27623
1.001	0.131183	0.27623
1.002	0.127497	0.27623
1.003	-0.119686	0.27623
1.004	-0.167726	0.27623
1.005	0.00712714	0.27623
1.006	0.154118	0.27623
1.007	0.15601	0.27623
1.008	0.0242529	0.27623
1.009	-0.192514	0.27623
1.01	-0.274702	0.27623
1.011	0.0171538	0.27623
1.012	0.227497	0.27623
1.013	0.172158	0.27623
1.014	0.020412	0.27623
1.015	-0.0924717	0.27623
1.016	-0.114708	0.27623
1.017	-0.0332434	0.27623
1.018	0.125521	0.27623
1.019	0.00483518	0.27623
1.02	-0.180869	0.27623
1.021	-0.0790928	0.27623
1.022	0.1205	0.27623
1.023	0.0963918	0.27623
1.024	0.141663	0.27623
1.025	0.153277	0.27623
1.026	-0.142058	0.27623
1.027	-0.424395	0.27623
1.028	-0.0410275	0.27623
1.029	0.246988	0.27623
1.03	0.104732	0.27623
1.031	-0.0240085	0.27623
1.032	-0.00287345	0.27623
1.033	-0.00912543	0.27623
1.034	0.00694437	0.27623
1.035	0.0783813	0.27623
1.036	-0.0626266	0.27623
1.037	-0.118731	0.27623
1.038	-0.0710552	0.27623
1.039	0.0460007	0.27623
1.04	0.126038	0.27623
1.041	0.125249	0.27623
1.042	-0.0221304	0.276605
1.043	-0.206083	0.27623
1.044	-0.115952	0.27623
1.045	0.145024	0.27623
1.046	0.136283	0.27623
1.047	0.0018502	0.27623
1.048	-0.0693571	0.27623
1.049	-0.0265554	0.27623
1.05	-0.0310359	0.27623
1.051	0.0209466	0.27623
1.052	0.0644135	0.27623
1.053	-0.102276	0.27623
1.054	-0.0769053	0.27623
1.055	0.0507176	0.27623
1.056	0.129556	0.27623
1.057	0.135928	0.27623
1.058	0.0258935	0.27623
1.059	-0.17156	0.27623
1.06	-0.281773	0.27623
1.061	-0.0501153	0.276605
1.062	0.239113	0.276605
1.063	0.212162	0.276605
1.064	0.0191165	0.27623
1.065	-0.137627	0.27623
1.066	-0.135686	0.276605
1.067	0.0113367	0.276605
1.068	0.152385	0.27623
1.069	0.0390709	0.276605
1.07	-0.158587	0.276605
1.071	-0.118569	0.276605
1.072	0.0691546	0.276605
1.073	0.139444	0.276605
1.074	0.119337	0.276605
1.075	0.0118196	0.276605
1.076	-0.167666	0.276605
1.077	-0.240933	0.276605
1.078	0.0557108	0.276605
1.079	0.193113	0.276605
1.08	0.139355	0.276605
1.081	-0.0116777	0.276605
1.082	-0.139868	0.276605
1.083	-0.101283	0.276605
1.084	0.0283878	0.276605
1.085	0.154581	0.276605
1.086	-0.0268577	0.276605
1.087	-0.111025	0.276605
1.088	-0.0600012	0.276605
1.089	0.0243078	0.276605
1.09	0.124458	0.276605
1.091	0.138008	0.276605
1.092	-0.00583708	0.276605
1.093	-0.211089	0.27623
1.094	-0.154572	0.27623
1.095	0.0952089	0.27623
1.096	0.134751	0.276605
1.097	0.072919	0.276605
1.098	-0.0189854	0.27623
1.099	-0.096852	0.276605
1.1	-0.084394	0.276605
1.101	0.0440498	0.276605
1.102	0.138561	0.276605
1.103	-0.101762	0.276605
1.104	-0.0940338	0.276605
1.105	0.0763744	0.276605
1.106	0.161904	0.276605
1.107	0.0599471	0.276605
1.108	-0.0845935	0.276605
1.109	-0.168955	0.276605
1.11	-0.26962	0.276605
1.111	0.100898	0.276605
1.112	0.318551	0.276605
1.113	0.170061	0.276605
1.114	-0.0399675	0.276605
1.115	-0.226599	0.276605
1.116	-0.205284	0.276605
1.117	0.0569986	0.276605
1.118	0.267074	0.276605
1.119	0.0847585	0.276605
1.12	-0.152689	0.276605
1.121	-0.106926	0.276605
1.122	0.0102869	0.276605
1.123	-0.0212028	0.276605
1.124	0.0478343	0.276605
1.125	0.0700226	0.276605
1.126	-0.130879	0.276605
1.127	-0.0438514	0.276605
1.128	0.271778	0.276605
1.129	0.227739	0.276605
1.13	-0.0835097	0.276605
1.131	-0.410892	0.276605
1.132	-0.348482	0.276605
1.133	0.151718	0.276605
1.134	0.387315	0.276605
1.135	0.296517	0.276605
1.136	-0.11081	0.276605
1.137	-0.299849	0.276605
1.138	-0.120205	0.27623
1.139	0.0356106	0.276605
1.14	0.194098	0.276605
1.141	0.191611	0.276605
1.142	-0.101488	0.276605
1.143	-0.313964	0.276605
1.144	-0.109276	0.276605
1.145	0.291724	0.276605
1.146	0.182073	0.276605
1.147	-0.159906	0.276605
1.148	-0.172016	0.27623
1.149	0.095314	0.276605
1.15	0.128057	0.276605
1.151	0.0475986	0.276605
1.152	-0.0111532	0.276605
1.153	-0.16919	0.276605
1.154	-0.12723	0.276605
1.155	0.06638	0.276605
1.156	0.0932128	0.276605
1.157	0.109168	0.276605
1.158	0.0718523	0.276605
1.159	-0.112042	0.27623
1.16	-0.225952	0.276605
1.161	0.0625776	0.276605
1.162	0.141561	0.27623
1.163	0.0110242	0.27623
1.164	0.0105019	0.27623
1.165	-0.0152314	0.27623
1.166	-0.0742687	0.27623
1.167	-0.0467049	0.27623
1.168	0.169549	0.27623
1.169	4.26119e-05	0.276605
1.17	-0.221455	0.276605
1.171	-0.00719547	0.276605
1.172	0.10294	0.27623
1.173	0.123566	0.276605
1.174	0.0788701	0.276605
1.175	-0.0547638	0.276605
1.176	-0.233298	0.27623
1.177	-0.168186	0.276605
1.178	0.2165	0.276605
1.179	0.29737	0.276605
1.18	-0.00552087	0.276605
1.181	-0.229198	0.276605
1.182	-0.162452	0.27623
1.183	-0.00426803	0.27623
1.184	0.142385	0.276605
1.185	0.122166	0.27623
1.186	-0.0367599	0.276605
1.187	-0.0203171	0.27623
1.188	0.00581234	0.276605
1.189	-0.0241972	0.27623
1.19	0.019311	0.27623
1.191	-0.103494	0.27623
1.192	-0.0161284	0.276605
1.193	0.0330579	0.276605
1.194	0.0410923	0.27623
1.195	0.0569511	0.276605
1.196	0.0618638	0.27623
1.197	-0.00607934	0.27623
1.198	-0.139784	0.27623
1.199	-0.144309	0.276605
1.2	0.0793515	0.27623
1.201	0.227638	0.27623
1.202	0.11453	0.27623
1.203	-0.134105	0.276605
1.204	-0.274361	0.27623
1.205	-0.0248494	0.276605
1.206	0.137464	0.27623
1.207	0.133685	0.27623
1.208	0.122161	0.276605
1.209	-0.0176185	0.276605
1.21	-0.318292	0.276605
1.211	-0.0541694	0.276605
1.212	0.115129	0.276605
1.213	0.120119	0.276605
1.214	0.0497888	0.276605
1.215	0.00379021	0.276605
1.216	-0.0198216	0.276605
1.217	-0.0921121	0.276605
1.218	0.0252749	0.276605
1.219	-0.000125883	0.276605
1.22	-0.164606	0.276605
1.221	-0.0183849	0.276605
1.222	0.170758	0.276605
1.223	0.0255926	0.276605
1.224	0.150011	0.276605
1.225	0.165958	0.276605
1.226	-0.22258	0.276605
1.227	-0.370537	0.276605
1.228	0.0181042	0.276605
1.229	0.11834	0.276605
1.23	0.0119416	0.276605
1.231	0.135979	0.276605
1.232	0.112298	0.276605
1.233	0.157838	0.276605
1.234	-0.0267765	0.276605
1.235	-0.251917	0.276605
1.236	-0.368908	0.276605
1.237	-0.049941	0.276605
1.238	0.291827	0.276605
1.239	0.25923	0.276605
1.24	0.150479	0.276605
1.241	0.007511	0.276605
1.242	-0.18589	0.276605
1.243	-0.334644	0.27623
1.244	-0.0991541	0.276605
1.245	0.154262	0.27623
1.246	0.137545	0.27623
1.247	0.126057	0.276605
1.248	0.0980977	0.27623
1.249	-0.0367342	0.27623
1.25	-0.090976	0.27623
1.251	-0.0764275	0.27623
1.252	-0.0856011	0.276605
1.253	-0.227894	0.276605
1.254	0.0233887	0.276605
1.255	0.373353	0.27623
1.256	0.20672	0.27623
1.257	0.0254884	0.276605
1.258	-0.143928	0.276605
1.259	-0.372555	0.27623
1.26	-0.234313	0.27623
1.261	0.289773	0.276605
1.262	0.322034	0.276605
1.263	0.0507821	0.276605
1.264	-0.166099	0.276605
1.265	-0.192451	0.276605
1.266	0.0234448	0.276605
1.267	0.0390009	0.276605
1.268	0.122839	0.276605
1.269	0.112523	0.276605
1.27	-0.0950797	0.276605
1.271	-0.167323	0.276605
1.272	-0.0857676	0.276605
1.273	0.0753927	0.276605
1.274	0.245698	0.276605
1.275	0.0354572	0.276605
1.276	-0.217265	0.276605
1.277	-0.0927086	0.276605
1.278	0.0762903	0.276605
1.279	0.0971696	0.276605
1.28	0.117522	0.276605
1.281	-0.136281	0.276605
1.282	-0.155473	0.276605
1.283	0.0342841	0.27623
1.284	0.0614643	0.276605
1.285	0.158586	0.276605
1.286	0.0575816	0.276605
1.287	-0.126648	0.276605
1.288	-0.176761	0.276605
1.289	-0.0229376	0.276605
1.29	0.111273	0.27623
1.291	0.166021	0.276605
1.292	0.00993827	0.276605
1.293	-0.190058	0.276605
1.294	-0.208629	0.27623
1.295	0.0515661	0.276605
1.296	0.527081	0.276605
1.297	0.130555	0.27623
1.298	-0.318511	0.27623
1.299	-0.490039	0.27623
1.3	-0.159709	0.27623
1.301	0.530262	0.27623
1.302	0.275341	0.27623
1.303	-0.0987471	0.27623
1.304	-0.195053	0.276605
1.305	-0.0833685	0.276605
1.306	0.0567523	0.276605
1.307	0.141839	0.276605
1.308	0.0798132	0.27623
1.309	-0.31005	0.276605
1.31	-0.194759	0.276605
1.311	0.272752	0.276605
1.312	0.0947469	0.276605
1.313	0.17024	0.276605
1.314	-0.0115684	0.276605
1.315	-0.261152	0.276605
1.316	-0.129692	0.276605
1.317	0.00471208	0.276605
1.318	0.322432	0.27623
1.319	0.107043	0.276605
1.32	-0.27755	0.276605
1.321	-0.298354	0.276605
1.322	0.106759	0.276605
1.323	0.423758	0.276605
1.324	0.159631	0.276605
1.325	-0.155427	0.276605
1.326	-0.260565	0.27623
1.327	-0.265546	0.27623
1.328	-0.0327698	0.276605
1.329	0.285817	0.276605
1.33	0.303778	0.276605
1.331	0.0245212	0.276605
1.332	-0.177794	0.276605
1.333	-0.115316	0.276605
1.334	-0.0601632	0.276605
1.335	0.0364855	0.276605
1.336	0.0729209	0.276605
1.337	-0.0441631	0.276605
1.338	-0.103575	0.276605
1.339	0.0294661	0.276605
1.34	0.163165	0.276605
1.341	0.1156	0.276605
1.342	-0.0366299	0.276605
1.343	-0.224219	0.276605
1.344	-0.0637962	0.276605
1.345	0.0743023	0.276605
1.346	0.122994	0.276605
1.347	0.052608	0.276605
1.348	-0.0998741	0.276605
1.349	-0.107384	0.276605
1.35	-0.0543977	0.276605
1.351	0.116356	0.276605
1.352	0.176031	0.276605
1.353	-0.0272739	0.276605
1.354	-0.0856042	0.276605
1.355	-0.0650346	0.276605
1.356	0.0434877	0.276605
1.357	0.0568898	0.276605
1.358	-0.136482	0.276605
1.359	-0.11626	0.276605
1.36	0.0154341	0.276605
1.361	0.176074	0.276605
1.362	0.242067	0.276605
1.363	0.0360534	0.276605
1.364	-0.164189	0.276605
1.365	-0.240735	0.276605
1.366	-0.17319	0.276605
1.367	0.0564288	0.276605
1.368	0.346055	0.276605
1.369	0.109259	0.276605
1.37	-0.161873	0.276605
1.371	-0.0575776	0.276605
1.372	0.0318242	0.276605
1.373	0.0221032	0.276605
1.374	-0.114075	0.276605
1.375	-0.0303446	0.276605
1.376	0.133101	0.276605
1.377	-0.114986	0.276605
1.378	0.0506845	0.276605
1.379	0.277494	0.276605
1.38	-0.228088	0.276605
1.381	-0.305834	0.276605
1.382	0.217148	0.276605
1.383	0.171079	0.276605
1.384	0.0826403	0.276605
1.385	-0.0800849	0.276605
1.386	-0.164719	0.276605
1.387	-0.0327274	0.276605
1.388	0.0206325	0.276605
1.389	-0.0804628	0.276605
1.39	-0.115951	0.276605
1.391	0.512564	0.276605
1.392	0.232882	0.276605
1.393	-0.443961	0.276605
1.394	-0.239191	0.276605
1.395	0.071357	0.276605
1.396	0.089098	0.276605
1.397	0.0608765	0.276605
1.398	-0.141923	0.276605
1.399	0.0712511	0.276605
1.4	0.0657632	0.276605
1.401	0.0185578	0.276605
1.402	0.368333	0.276605
1.403	-0.0829117	0.276605
1.404	-0.462437	0.276605
1.405	-0.282257	0.276605
1.406	0.156247	0.276605
1.407	0.352187	0.276605
1.408	0.0990981	0.276605
1.409	-0.0886474	0.276605
1.41	-0.106606	0.276605
1.411	0.0124949	0.276605
1.412	0.0303801	0.276605
1.413	0.182925	0.276605
1.414	-0.00137991	0.276605
1.415	-0.321968	0.276605
1.416	-0.0466515	0.276605
1.417	-0.130296	0.276605
1.418	-0.0139919	0.276605
1.419	0.380183	0.276605
1.42	0.228323	0.276605
1.421	0.00373948	0.276605
1.422	-0.0401641	0.276605
1.423	-0.258884	0.276605
1.424	-0.272106	0.276605
1.425	0.0622087	0.276605
1.426	0.0759929	0.276605
1.427	-0.00480201	0.276605
1.428	0.182703	0.276605
1.429	0.109228	0.276605
1.43	0.00699073	0.276605
1.431	-0.0842499	0.276605
1.432	-0.16651	0.276605
1.433	-0.0904738	0.276605
1.434	0.139532	0.276605
1.435	0.202176	0.276605
1.436	0.0422382	0.276605
1.437	-0.201061	0.276605
1.438	-0.251943	0.276605
1.439	-0.0700092	0.276605
1.44	0.164234	0.276605
1.441	0.396761	0.276605
1.442	0.0608895	0.276605
1.443	-0.235744	0.276605
1.444	-0.154122	0.276605
1.445	0.0505038	0.276605
1.446	0.0629098	0.276605
1.447	-0.075024	0.276605
1.448	-0.105023	0.276605
1.449	-0.0228512	0.276605
1.45	0.135749	0.276605
1.451	0.218802	0.276605
1.452	0.0977985	0.276605
1.453	-0.188351	0.276605
1.454	-0.289825	0.276605
1.455	0.00764777	0.276605
1.456	0.165867	0.276605
1.457	0.107568	0.276605
1.458	0.0602424	0.276605
1.459	-0.118173	0.276605
1.46	-0.222997	0.276605
1.461	0.087268	0.276605
1.462	0.110183	0.276605
1.463	0.0753722	0.276605
1.464	0.0625219	0.276605
1.465	-0.0177259	0.276605
1.466	-0.0321784	0.276605
1.467	-0.0236543	0.276605
1.468	-0.301253	0.276605
1.469	-0.261174	0.276605
1.47	0.2775	0.276605
1.471	0.294009	0.276605
1.472	0.511439	0.276605
1.473	0.0994486	0.276605
1.474	-0.662698	0.276605
1.475	-0.493085	0.276605
1.476	0.0190917	0.276605
1.477	0.135782	0.276605
1.478	0.282329	0.276605
1.479	0.294796	0.276605
1.48	0.00595465	0.276605
1.481	-0.0484244	0.276605
1.482	-0.171359	0.276605
1.483	-0.202333	0.276605
1.484	0.0145953	0.276605
1.485	0.193698	0.276605
1.486	0.019254	0.276605
1.487	-0.196074	0.276605
1.488	-0.128725	0.276605
1.489	0.29583	0.276605
1.49	0.15579	0.276605
1.491	0.0195915	0.276605
1.492	-0.20973	0.276605
1.493	-0.168074	0.276605
1.494	0.176973	0.276605
1.495	0.092375	0.276605
1.496	-0.308627	0.276605
1.497	0.0133488	0.276605
1.498	0.153231	0.276605
1.499	0.130193	0.276605
1.5	0.126498	0.276605
1.501	0.0825634	0.276605
1.502	-0.17153	0.276605
1.503	-0.324535	0.276605
1.504	-0.190238	0.276605
1.505	-0.0671604	0.276605
1.506	0.308445	0.276605
1.507	0.422354	0.276605
1.508	0.305723	0.276605
1.509	-0.210095	0.276605
1.51	-0.476087	0.276605
1.511	-0.182716	0.276605
1.512	0.0260188	0.276605
1.513	0.141213	0.276605
1.514	-0.143533	0.276605
1.515	-0.0703789	0.276605
1.516	0.695758	0.276605
1.517	0.283092	0.276605
1.518	-0.328799	0.276605
1.519	-0.443174	0.276605
1.52	-0.219568	0.276605
1.521	-0.088655	0.276605
1.522	0.123217	0.276605
1.523	0.436329	0.276605
1.524	0.171069	0.276605
1.525	0.0629248	0.276605
1.526	-0.256469	0.276605
1.527	-0.396163	0.276605
1.528	0.220628	0.276605
1.529	0.0212185	0.276605
1.53	-0.0355029	0.276605
1.531	0.137436	0.276605
1.532	-0.0171463	0.276605
1.533	-0.11794	0.276605
1.534	0.0908724	0.276605
1.535	0.0820568	0.276605
1.536	-0.0478404	0.276605
1.537	-0.014972	0.276605
1.538	-0.0663515	0.276605
1.539	0.0128051	0.276605
1.54	0.0637124	0.276605
1.541	-0.01932	0.276605
1.542	-0.117018	0.276605
1.543	-0.158081	0.276605
1.544	0.0746815	0.276605
1.545	0.289007	0.276605
1.546	0.247941	0.276605
1.547	-0.00675735	0.276605
1.548	-0.25774	0.276605
1.549	-0.254919	0.276605
1.55	-0.17414	0.276605
1.551	0.014628	0.276605
1.552	0.12628	0.276605
1.553	0.14293	0.276605
1.554	0.225316	0.27623
1.555	0.179295	0.276605
1.556	-0.019789	0.276605
1.557	-0.122619	0.27623
1.558	-0.189119	0.276605
1.559	-0.452275	0.276605
1.56	-0.0633325	0.276605
1.561	0.274531	0.276605
1.562	0.378932	0.276605
1.563	0.0755629	0.276605
1.564	-0.113593	0.276605
1.565	-0.0770676	0.276605
1.566	-0.043785	0.276605
1.567	0.0356972	0.276605
1.568	0.165142	0.276605
1.569	-0.0681077	0.276605
1.57	-0.499535	0.276605
1.571	-0.0559172	0.276605
1.572	0.382012	0.276605
1.573	0.142542	0.276605
1.574	0.195351	0.276605
1.575	0.0316554	0.276605
1.576	-0.288455	0.276605
1.577	-0.451337	0.276605
1.578	0.147224	0.276605
1.579	0.399607	0.276605
1.58	0.145299	0.276605
1.581	-0.216847	0.276605
1.582	-0.304547	0.276605
1.583	0.0230983	0.27623
1.584	0.286625	0.276605
1.585	0.290589	0.276605
1.586	-0.102846	0.276605
1.587	-0.350432	0.276605
1.588	-0.403912	0.276605
1.589	0.0512429	0.276605
1.59	0.582014	0.276605
1.591	0.355635	0.276605
1.592	-0.111929	0.276605
1.593	-0.500317	0.276605
1.594	-0.213938	0.276605
1.595	0.285603	0.276605
1.596	0.179236	0.276605
1.597	-0.122764	0.276605
1.598	-0.2651	0.276605
1.599	-0.000309754	0.276605
1.6	0.34908	0.276605
1.601	0.234478	0.276605
1.602	0.0126565	0.276605
1.603	-0.247195	0.276605
1.604	-0.240129	0.276605
1.605	-0.0946416	0.276605
1.606	-0.210898	0.276605
1.607	0.283385	0.276605
1.608	0.480312	0.276605
1.609	0.108278	0.276605
1.61	-0.350108	0.276605
1.611	-0.213481	0.276605
1.612	0.0544743	0.276605
1.613	0.223763	0.276605
1.614	-0.096243	0.276605
1.615	-0.141046	0.276605
1.616	-0.0560313	0.276605
1.617	-0.118374	0.276605
1.618	0.235308	0.276605
1.619	0.292331	0.276605
1.62	0.0586019	0.276605
1.621	-0.0774454	0.276605
1.622	-0.243283	0.276605
1.623	-0.192699	0.276605
1.624	0.0873649	0.276605
1.625	-0.0525354	0.276605
1.626	0.085124	0.276605
1.627	0.03988	0.276605
1.628	0.0596961	0.276605
1.629	0.0915526	0.276605
1.63	0.17558	0.276605
1.631	-0.0431884	0.276605
1.632	-0.277031	0.276605
1.633	-0.222138	0.27623
1.634	0.0188921	0.276605
1.635	0.313234	0.276605
1.636	0.0282512	0.276605
1.637	-0.137583	0.276605
1.638	-0.0252544	0.276605
1.639	0.0567969	0.276605
1.64	0.0278925	0.276605
1.641	0.0101317	0.276605
1.642	0.0484241	0.276605
1.643	-0.000860285	0.276605
1.644	-0.000359842	0.276605
1.645	-0.073291	0.276605
1.646	-0.100969	0.276605
1.647	-0.0665294	0.276605
1.648	-0.0553199	0.276605
1.649	0.0820211	0.276605
1.65	0.311065	0.276605
1.651	0.0853864	0.276605
1.652	-0.185457	0.276605
1.653	-0.132683	0.276605
1.654	0.0679981	0.276605
1.655	0.0105731	0.276605
1.656	0.040252	0.276605
1.657	-0.0899574	0.276605
1.658	0.00210707	0.276605
1.659	-0.300929	0.276605
1.66	-0.259596	0.276605
1.661	0.629082	0.276605
1.662	0.608858	0.276605
1.663	0.0928567	0.276605
1.664	-0.672839	0.276605
1.665	-0.59465	0.276605
1.666	0.194736	0.276605
1.667	0.121684	0.276605
1.668	0.208084	0.276605
1.669	-0.00776302	0.276605
1.67	0.0371154	0.276605
1.671	0.0919465	0.276605
1.672	0.0422337	0.276605
1.673	0.0987464	0.276605
1.674	-0.0815466	0.276605
1.675	-0.309949	0.276605
1.676	-0.355875	0.276605
1.677	0.0979402	0.276605
1.678	0.433413	0.276605
1.679	0.25892	0.276605
1.68	-0.0287952	0.276605
1.681	-0.210838	0.27623
1.682	-0.0694214	0.276605
1.683	-0.184194	0.276605
1.684	0.0674231	0.276605
1.685	0.290714	0.276605
1.686	-0.126287	0.276605
1.687	-0.245866	0.276605
1.688	0.0712995	0.276605
1.689	0.137162	0.276605
1.69	0.154513	0.276605
1.691	0.0755969	0.276605
1.692	-0.279955	0.276605
1.693	-0.132642	0.276605
1.694	0.287561	0.276605
1.695	-0.151732	0.276605
1.696	-0.0317355	0.276605
1.697	-0.0471241	0.276605
1.698	-0.0198616	0.276605
1.699	0.277644	0.276605
1.7	0.0522376	0.276605
1.701	-0.0313789	0.276605
1.702	-0.116199	0.276605
1.703	-0.323762	0.276605
1.704	0.0273412	0.276605
1.705	0.260816	0.276605
1.706	0.195441	0.276605
1.707	0.0504393	0.276605
1.708	-0.123862	0.276605
1.709	-0.33191	0.276605
1.71	-0.137243	0.276605
1.711	0.106605	0.276605
1.712	0.348501	0.276605
1.713	0.131579	0.276605
1.714	-0.0260595	0.276605
1.715	-0.0365188	0.276605
1.716	-0.236969	0.276605
1.717	-0.249811	0.276605
1.718	-0.0288378	0.276605
1.719	0.351538	0.276605
1.72	0.260332	0.276605
1.721	-0.101006	0.276605
1.722	-0.325462	0.276605
1.723	-0.118697	0.276605
1.724	0.224284	0.276605
1.725	0.34003	0.276605
1.726	0.0123498	0.276605
1.727	-0.245049	0.276605
1.728	-0.272922	0.276605
1.729	-0.178857	0.276605
1.73	0.10095	0.276605
1.731	0.220095	0.276605
1.732	0.448308	0.276605
1.733	0.0967167	0.276605
1.734	-0.581363	0.276605
1.735	-0.161773	0.276605
1.736	0.244504	0.276605
1.737	0.0326909	0.276605
1.738	0.00379158	0.276605
1.739	-0.0449992	0.276605
1.74	-0.0266967	0.276605
1.741	0.0211708	0.276605
1.742	-0.0499892	0.276605
1.743	0.108491	0.27623
1.744	0.108507	0.276605
1.745	-0.126251	0.276605
1.746	0.00287621	0.276605
1.747	0.0455815	0.276605
1.748	0.00270974	0.276605
1.749	-0.0308655	0.276605
1.75	-0.269299	0.276605
1.751	-0.104183	0.276605
1.752	0.290984	0.276605
1.753	0.237598	0.276605
1.754	0.0253978	0.276605
1.755	0.0893089	0.276605
1.756	0.044797	0.276605
1.757	-0.368477	0.276605
1.758	-0.616189	0.276605
1.759	0.0110607	0.276605
1.76	0.641446	0.276605
1.761	0.212834	0.276605
1.762	0.158734	0.276605
1.763	0.0474754	0.276605
1.764	-0.277046	0.276605
1.765	-0.424175	0.276605
1.766	-0.0465155	0.276978
1.767	0.0882185	0.276605
1.768	0.0594679	0.276605
1.769	0.278765	0.276605
1.77	0.174014	0.276605
1.771	-0.0773928	0.276605
1.772	-0.232748	0.276978
1.773	-0.275125	0.276605
1.774	0.0757367	0.276605
1.775	0.590296	0.276605
1.776	0.0251316	0.276605
1.777	-0.536321	0.276978
1.778	-0.246048	0.276605
1.779	0.0989192	0.276605
1.78	0.315255	0.276605
1.781	0.177254	0.276605
1.782	-0.0864464	0.276605
1.783	0.0161198	0.276605
1.784	0.00722928	0.276978
1.785	-0.111474	0.276605
1.786	-0.179082	0.276605
1.787	-0.158539	0.276605
1.788	0.25596	0.276605
1.789	0.326802	0.276605
1.79	-0.375906	0.276605
1.791	-0.178337	0.276605
1.792	0.542237	0.276605
1.793	0.137938	0.276605
1.794	-0.390575	0.276605
1.795	-0.226792	0.276605
1.796	0.0187045	0.276605
1.797	0.175471	0.276605
1.798	0.102117	0.276605
1.799	0.0315808	0.276605
1.8	-0.113711	0.276605
1.801	-0.102663	0.276605
1.802	0.179199	0.276605
1.803	0.0775976	0.276605
1.804	-0.20711	0.276605
1.805	-0.150625	0.276605
1.806	0.223999	0.276605
1.807	0.160025	0.276605
1.808	-0.0268372	0.276605
1.809	-0.146854	0.276605
1.81	-0.131	0.276605
1.811	-0.0906434	0.276605
1.812	0.138428	0.276605
1.813	0.270574	0.276605
1.814	-0.0702193	0.276605
1.815	-0.250108	0.276605
1.816	0.0736125	0.276605
1.817	0.125751	0.276605
1.818	0.105151	0.276605
1.819	0.0199384	0.276605
1.82	-0.282329	0.276605
1.821	-0.27202	0.276605
1.822	0.118019	0.276605
1.823	0.231028	0.276605
1.824	0.236384	0.276605
1.825	0.116497	0.276605
1.826	-0.166687	0.276605
1.827	-0.424119	0.276605
1.828	-0.144235	0.27623
1.829	0.403134	0.276605
1.83	0.333941	0.276605
1.831	-0.220369	0.276605
1.832	-0.330697	0.276605
1.833	0.154618	0.27623
1.834	0.0971754	0.276605
1.835	-0.115157	0.27623
1.836	0.0337394	0.276605
1.837	0.0699438	0.27623
1.838	0.0618899	0.27623
1.839	-0.0815065	0.276605
1.84	-0.00983863	0.27623
1.841	0.0627057	0.276605
1.842	-0.0125411	0.27623
1.843	-0.0551097	0.27623
1.844	-0.144758	0.27623
1.845	-0.0188495	0.27623
1.846	0.265209	0.27623
1.847	-0.0952364	0.27623
1.848	-0.0896574	0.27623
1.849	0.110871	0.27623
1.85	0.0194423	0.276605
1.851	0.0724249	0.27623
1.852	0.191889	0.27623
1.853	-0.148154	0.27623
1.854	-0.494361	0.276605
1.855	-0.158201	0.27623
1.856	0.31352	0.27623
1.857	0.290636	0.276605
1.858	0.219544	0.27623
1.859	-0.0737379	0.276605
1.86	-0.22083	0.276605
1.861	-0.20882	0.276605
1.862	0.104899	0.276605
1.863	0.125382	0.276605
1.864	-0.0933894	0.276605
1.865	0.0533353	0.276605
1.866	-0.186258	0.276605
1.867	-0.0579215	0.276605
1.868	0.362547	0.276605
1.869	0.116686	0.276605
1.87	-0.184038	0.276605
1.871	-0.144308	0.276605
1.872	0.109072	0.276605
1.873	0.0841654	0.276605
1.874	-0.170952	0.276605
1.875	-0.0417315	0.27623
1.876	-0.0723005	0.27623
1.877	-0.0959037	0.276605
1.878	0.218888	0.276605
1.879	0.233963	0.276605
1.88	0.269101	0.276605
1.881	-0.0466604	0.276605
1.882	-0.451075	0.27623
1.883	-0.486856	0.276605
1.884	-0.232374	0.276605
1.885	0.487985	0.276605
1.886	0.737158	0.276605
1.887	0.328599	0.276605
1.888	-0.346539	0.276605
1.889	-0.603403	0.276605
1.89	-0.422143	0.276605
1.891	0.00292367	0.276605
1.892	0.556395	0.276605
1.893	0.352596	0.276605
1.894	-0.0853497	0.276605
1.895	-0.151231	0.276605
1.896	-0.112364	0.276605
1.897	-0.127463	0.276605
1.898	0.115447	0.276605
1.899	0.106282	0.276605
1.9	-0.116869	0.276605
1.901	-0.0597279	0.276605
1.902	0.0208241	0.276605
1.903	0.0339076	0.276605
1.904	0.104474	0.276605
1.905	0.136169	0.27623
1.906	-0.123496	0.276605
1.907	-0.0861969	0.276605
1.908	0.0202687	0.27623
1.909	-0.071697	0.276605
1.91	-0.0458164	0.276605
1.911	-0.0782596	0.276605
1.912	0.0407234	0.276605
1.913	0.198965	0.27623
1.914	0.236945	0.276605
1.915	-0.0561315	0.27623
1.916	-0.0838091	0.27623
1.917	-0.0741841	0.27623
1.918	-0.316879	0.276605
1.919	-0.134449	0.27623
1.92	0.0586851	0.276605
1.921	0.324459	0.27623
1.922	0.223958	0.27623
1.923	0.0174249	0.27623
1.924	-0.129256	0.27623
1.925	0.0494659	0.276605
1.926	0.134191	0.276605
1.927	-0.499272	0.276605
1.928	-0.532254	0.276605
1.929	0.406392	0.276605
1.93	0.520659	0.276605
1.931	0.0832083	0.276605
1.932	-0.146537	0.276605
1.933	-0.126257	0.276605
1.934	0.134406	0.276605
1.935	0.0768829	0.276605
1.936	-0.113677	0.276605
1.937	-0.499968	0.276605
1.938	-0.366327	0.276605
1.939	0.612815	0.276605
1.94	0.637705	0.276605
1.941	0.0138535	0.276605
1.942	-0.239636	0.276605
1.943	-0.338184	0.276605
1.944	-0.23085	0.276605
1.945	-0.0721206	0.276605
1.946	0.226026	0.276605
1.947	0.206737	0.276605
1.948	0.120362	0.27623
1.949	0.0889848	0.27623
1.95	-0.173628	0.27623
1.951	-0.139183	0.27623
1.952	0.0590085	0.276605
1.953	-0.0669207	0.276605
1.954	-0.204633	0.27623
1.955	0.0618169	0.276605
1.956	0.0978878	0.27623
1.957	0.148974	0.27623
1.958	0.367011	0.27623
1.959	0.0108254	0.27623
1.96	-0.372128	0.276605
1.961	-0.384491	0.276605
1.962	-0.0737493	0.276605
1.963	0.214305	0.27623
1.964	0.334821	0.27623
1.965	-0.0058224	0.27623
1.966	-0.157334	0.27623
1.967	-0.00132868	0.27623
1.968	0.0890464	0.27623
1.969	0.168952	0.276605
1.97	-0.0561946	0.276605
1.971	-0.379418	0.27623
1.972	-0.0339538	0.27623
1.973	0.0789531	0.276605
1.974	0.0880916	0.27623
1.975	0.0909088	0.276605
1.976	0.0910494	0.276605
1.977	0.0185712	0.276605
1.978	-0.0963067	0.276605
1.979	0.176199	0.276605
1.98	-0.294008	0.276605
1.981	-0.338429	0.27623
1.982	0.293355	0.276605
1.983	0.166655	0.276605
1.984	-0.00736007	0.276605
1.985	0.151049	0.27623
1.986	0.0534453	0.276605
1.987	-0.115378	0.276605
1.988	-0.250492	0.276605
1.989	-0.20833	0.276605
1.99	0.195228	0.276605
1.991	0.199237	0.276605
1.992	-0.121041	0.276605
1.993	-0.0755344	0.276605
1.994	0.277467	0.276605
1.995	0.275331	0.27623
1.996	-0.197006	0.276605
1.997	-0.259508	0.276605
1.998	-0.222799	0.276605
1.999	0.00412931	0.276605
2	0.0190044	0.276605
2.001	0.106127	0.276605
2.002	0.262718	0.276605
2.003	0.226845	0.276605
2.004	-0.10812	0.276605
2.005	-0.126394	0.276605
2.006	-0.191726	0.276605
2.007	-0.138922	0.276605
2.008	-0.0438195	0.276605
2.009	-0.00352068	0.276605
2.01	0.169728	0.276605
2.011	0.356462	0.276605
2.012	0.0913324	0.276605
2.013	-0.157145	0.276605
2.014	-0.277838	0.276605
2.015	-0.247638	0.276605
2.016	0.0866621	0.276605
2.017	0.10119	0.276605
2.018	0.181489	0.276605
2.019	0.338255	0.276605
2.02	-0.0889007	0.27623
2.021	-0.34595	0.276605
2.022	-0.208054	0.276605
2.023	-0.122595	0.276605
2.024	0.0654868	0.276605
2.025	0.425018	0.276605
2.026	0.380201	0.276605
2.027	-0.100571	0.276605
2.028	-0.324088	0.276605
2.029	-0.299143	0.276605
2.03	-0.101024	0.276605
2.031	0.0214489	0.276605
2.032	0.102096	0.276605
2.033	0.317421	0.276605
2.034	0.218872	0.276605
2.035	-0.0972968	0.276605
2.036	-0.00281308	0.276605
2.037	0.00229835	0.276605
2.038	-0.532883	0.276605
2.039	-0.369916	0.276605
2.04	0.381998	0.276605
2.041	0.397215	0.27623
2.042	0.320155	0.276605
2.043	0.0694423	0.27623
2.044	-0.457886	0.27623
2.045	-0.315833	0.276605
2.046	0.00239322	0.276605
2.047	0.24949	0.276605
2.048	0.171568	0.276605
2.049	-0.212499	0.276605
2.05	-0.136681	0.276605
2.051	0.0627148	0.276605
2.052	0.348185	0.276605
2.053	0.253997	0.276605
2.054	-0.142973	0.276605
2.055	-0.44324	0.276605
2.056	-0.339126	0.276605
2.057	0.0940577	0.276605
2.058	0.153554	0.276605
2.059	0.389435	0.276605
2.06	0.249889	0.276605
2.061	-0.113023	0.276605
2.062	-0.220596	0.276605
2.063	-0.266543	0.276605
2.064	-0.137715	0.276605
2.065	0.194659	0.276605
2.066	0.219581	0.276605
2.067	-0.107505	0.276605
2.068	-0.150983	0.276605
2.069	0.194926	0.276605
2.07	0.202725	0.276605
2.071	-0.0347671	0.276605
2.072	-0.161928	0.276605
2.073	-0.142215	0.276605
2.074	-0.193256	0.276605
2.075	0.0968588	0.276605
2.076	0.408236	0.276605
2.077	-0.254285	0.276605
2.078	-0.0641376	0.276605
2.079	0.233007	0.276605
2.08	0.101371	0.276605
2.081	-0.185783	0.276605
2.082	-0.13673	0.276605
2.083	0.019986	0.276605
2.084	-0.031699	0.276605
2.085	-0.0299176	0.276605
2.086	0.186599	0.276605
2.087	0.185695	0.276605
2.088	-0.214785	0.276605
2.089	-0.22705	0.276605
2.09	0.0844874	0.276605
2.091	0.267908	0.276605
2.092	-0.0344792	0.276605
2.093	-0.194956	0.276605
2.094	0.10102	0.276605
2.095	0.169628	0.276605
2.096	-0.154931	0.276605
2.097	-0.229319	0.276605
2.098	-0.0348878	0.276605
2.099	0.126828	0.276605
2.1	0.134551	0.276605
2.101	0.0290363	0.276605
2.102	0.121223	0.276605
2.103	0.176126	0.276605
2.104	-0.165603	0.276605
2.105	-0.458313	0.276605
2.106	-0.161899	0.276605
2.107	0.0840521	0.276605
2.108	0.497042	0.276605
2.109	0.48202	0.276605
2.11	-0.58663	0.276605
2.111	-0.439628	0.276605
2.112	0.164045	0.276605
2.113	0.198539	0.276605
2.114	0.228836	0.276605
2.115	0.117651	0.276605
2.116	-0.14551	0.276605
2.117	-0.159144	0.276605
2.118	-0.263608	0.276605
2.119	-0.132476	0.276605
2.12	0.205039	0.276605
2.121	0.156111	0.276605
2.122	0.0840907	0.276605
2.123	0.283935	0.276605
2.124	0.12542	0.276605
2.125	-0.219135	0.276605
2.126	-0.474204	0.276605
2.127	-0.209386	0.276605
2.128	-0.167669	0.276605
2.129	0.29861	0.276605
2.13	0.724127	0.276605
2.131	0.201861	0.276605
2.132	-0.336766	0.276605
2.133	-0.430111	0.276605
2.134	-0.149722	0.276605
2.135	0.104424	0.276605
2.136	0.227255	0.276605
2.137	0.0380735	0.276605
2.138	-0.154826	0.276605
2.139	-0.0654104	0.276605
2.14	0.146033	0.276605
2.141	0.216489	0.276605
2.142	-0.0500853	0.276605
2.143	-0.0952322	0.276605
2.144	-0.0956937	0.276605
2.145	-0.210022	0.276605
2.146	-0.11712	0.27623
2.147	0.3359	0.276605
2.148	0.329091	0.27623
2.149	-0.194903	0.276605
2.15	-0.21191	0.27623
2.151	0.217314	0.276605
2.152	0.0226678	0.276605
2.153	-0.394163	0.276605
2.154	0.0157567	0.276605
2.155	0.0701259	0.276605
2.156	0.218133	0.276605
2.157	0.134168	0.276605
2.158	0.0624563	0.276605
2.159	-0.0968468	0.276605
2.16	-0.316055	0.276605
2.161	-0.180663	0.276605
2.162	0.20544	0.276605
2.163	0.240179	0.276605
2.164	0.0280495	0.276605
2.165	-0.0763403	0.276605
2.166	-0.0846272	0.276605
2.167	-0.118696	0.276605
2.168	-0.013968	0.276605
2.169	0.234309	0.276605
2.17	0.229585	0.276605
2.171	-0.0627	0.276605
2.172	-0.340616	0.276605
2.173	-0.293303	0.27623
2.174	0.197411	0.276605
2.175	0.26795	0.276605
2.176	0.000720489	0.276605
2.177	-0.142805	0.276605
2.178	0.0377455	0.276605
2.179	0.258766	0.276605
2.18	0.0321744	0.276605
2.181	-0.236054	0.276605
2.182	-0.175948	0.276605
2.183	-0.0457839	0.276605
2.184	0.0137301	0.276605
2.185	0.181345	0.276605
2.186	0.0846353	0.276605
2.187	-0.103383	0.276605
2.188	-0.0388802	0.276605
2.189	0.0170645	0.27623
2.19	0.155687	0.276605
2.191	0.246408	0.276605
2.192	0.0099145	0.276605
2.193	-0.362585	0.27623
2.194	-0.712729	0.276605
2.195	-0.0534305	0.276605
2.196	0.883027	0.27623
2.197	0.289097	0.27623
2.198	-0.0928443	0.276605
2.199	-0.130951	0.276605
2.2	-0.177546	0.276605
2.201	-0.213317	0.276605
2.202	0.0842375	0.276605
2.203	0.267014	0.276605
2.204	-0.145174	0.276605
2.205	-0.21398	0.27623
2.206	0.0161162	0.276605
2.207	0.0618512	0.276605
2.208	0.395576	0.276605
2.209	0.096275	0.276605
2.21	-0.349801	0.276605
2.211	-0.294848	0.27623
2.212	0.0967886	0.276605
2.213	0.313211	0.276605
2.214	0.115123	0.276605
2.215	-0.110347	0.276605
2.216	-0.265999	0.276605
2.217	-0.21431	0.276605
2.218	0.038643	0.276605
2.219	0.483091	0.276605
2.22	0.316351	0.276605
2.221	-0.24027	0.276605
2.222	-0.432695	0.276605
2.223	-0.127383	0.276605
2.224	0.15103	0.276605
2.225	0.326742	0.276605
2.226	-0.00681932	0.276605
2.227	-0.343293	0.276605
2.228	0.0862729	0.276605
2.229	0.304388	0.276605
2.23	-0.103793	0.276605
2.231	-0.133207	0.276605
2.232	-0.00789447	0.276605
2.233	-0.0769191	0.276605
2.234	-0.0792844	0.276605
2.235	0.273435	0.276605
2.236	0.0882017	0.276605
2.237	-0.153028	0.276605
2.238	-0.0548795	0.276605
2.239	0.000581627	0.276605
2.24	0.0851015	0.276605
2.241	0.0454764	0.276605
2.242	-0.0811985	0.276605
2.243	-0.152096	0.276605
2.244	-0.0847795	0.276605
2.245	0.156359	0.276605
2.246	0.19936	0.276605
2.247	0.125436	0.276605
2.248	-0.028785	0.276605
2.249	-0.272104	0.276605
2.25	-0.343254	0.276605
2.251	0.136898	0.276605
2.252	0.30752	0.276605
2.253	0.269265	0.276605
2.254	-0.112334	0.276605
2.255	-0.288984	0.276605
2.256	-0.0782207	0.276605
2.257	0.0319803	0.276605
2.258	0.0711136	0.276605
2.259	0.0590596	0.276605
2.26	0.0374591	0.276605
2.261	0.0237041	0.276605
2.262	0.034503	0.276605
2.263	-0.0382564	0.276605
2.264	-0.0951085	0.276605
2.265	-0.0256711	0.276605
2.266	-0.0707033	0.276605
2.267	0.0203911	0.276605
2.268	0.0184369	0.276605
2.269	0.228719	0.276605
2.27	0.0483806	0.276605
2.271	-0.122089	0.276605
2.272	-0.139668	0.276605
2.273	-0.0271587	0.276605
2.274	0.121873	0.276605
2.275	0.102495	0.276605
2.276	-0.0895047	0.276605
2.277	-0.285785	0.276605
2.278	-0.0115411	0.276605
2.279	0.319928	0.276605
2.28	0.243964	0.276605
2.281	-0.116286	0.276605
2.282	-0.231158	0.276605
2.283	-0.0706981	0.276605
2.284	0.0258043	0.276605
2.285	0.14954	0.276605
2.286	-0.0249505	0.276605
2.287	-0.0962971	0.27623
2.288	-0.111038	0.276605
2.289	0.0862536	0.276605
2.29	0.180021	0.27623
2.291	0.108982	0.27623
2.292	-0.0563755	0.276605
2.293	-0.172131	0.27623
2.294	-0.141881	0.27623
2.295	0.0708049	0.27623
2.296	0.0973327	0.276605
2.297	0.0795191	0.276605
2.298	-0.0574859	0.276605
2.299	-0.0514933	0.276605
2.3	-0.0716029	0.276605
2.301	-0.0307803	0.276605
2.302	0.178221	0.276605
2.303	0.198383	0.276605
2.304	-0.0928356	0.276605
2.305	-0.244819	0.276605
2.306	-0.0193868	0.276605
2.307	0.0741738	0.276605
2.308	0.0522667	0.276605
2.309	0.0850349	0.276605
2.31	-0.161066	0.276605
2.311	-0.150061	0.276605
2.312	-0.125476	0.276605
2.313	0.449839	0.276605
2.314	0.433735	0.276605
2.315	-0.144444	0.276605
2.316	-0.413778	0.276605
2.317	-0.355778	0.276605
2.318	-0.100881	0.276605
2.319	0.403575	0.276605
2.32	0.275395	0.276605
2.321	-0.142482	0.276605
2.322	-0.0744929	0.276605
2.323	0.0595498	0.276605
2.324	0.207657	0.276605
2.325	-0.0205694	0.276605
2.326	-0.5076	0.276605
2.327	-0.167628	0.276605
2.328	0.375692	0.276605
2.329	0.133018	0.276605
2.33	0.111551	0.276605
2.331	-0.0249486	0.276605
2.332	-0.105553	0.276605
2.333	-0.171268	0.276605
2.334	-0.0313316	0.276605
2.335	0.203052	0.276605
2.336	0.0435986	0.276605
2.337	-0.183899	0.276605
2.338	0.00305854	0.276605
2.339	0.0680203	0.276605
2.34	0.0493899	0.276605
2.341	0.074828	0.276605
2.342	0.0102473	0.276605
2.343	-0.115046	0.276605
2.344	-0.278716	0.276605
2.345	0.0917992	0.276605
2.346	0.307639	0.276605
2.347	0.0944437	0.276605
2.348	0.046743	0.276605
2.349	-0.331821	0.276605
2.35	-0.361471	0.276605
2.351	0.140793	0.276605
2.352	0.402605	0.276605
2.353	0.162487	0.276605
2.354	-0.080427	0.276605
2.355	-0.131754	0.276605
2.356	-0.102139	0.276605
2.357	-0.00658975	0.276605
2.358	-0.0131358	0.276605
2.359	-0.17185	0.276605
2.36	-0.0742938	0.276605
2.361	0.288838	0.276605
2.362	0.337704	0.276605
2.363	-0.0497725	0.276605
2.364	-0.169367	0.276605
2.365	-0.199431	0.276605
2.366	-0.0892713	0.276605
2.367	0.0534731	0.276605
2.368	0.198125	0.276605
2.369	0.0963078	0.27623
2.37	-0.239353	0.27623
2.371	-0.22113	0.276605
2.372	0.0102799	0.276605
2.373	0.503251	0.276605
2.374	0.351381	0.276605
2.375	-0.280207	0.276605
2.376	-0.571077	0.276605
2.377	-0.212818	0.276605
2.378	0.360171	0.276605
2.379	0.310446	0.276605
2.38	0.0810906	0.276605
2.381	-0.307236	0.276605
2.382	-0.163588	0.276605
2.383	0.165811	0.276605
2.384	-0.00342537	0.276605
2.385	0.186712	0.276605
2.386	0.245827	0.276605
2.387	-0.246033	0.276605
2.388	-0.40343	0.276605
2.389	-0.124312	0.276605
2.39	0.218866	0.276605
2.391	0.275302	0.276605
2.392	0.192814	0.276605
2.393	-0.140916	0.276605
2.394	-0.247739	0.276605
2.395	-0.0254571	0.276605
2.396	0.132614	0.276605
2.397	0.09163	0.276605
2.398	-0.10324	0.276605
2.399	-0.201608	0.276605
2.4	0.0321802	0.276605
2.401	0.294438	0.276605
2.402	0.149747	0.276605
2.403	-0.125198	0.276605
2.404	-0.254682	0.276605
2.405	-0.18587	0.276605
2.406	0.122792	0.276605
2.407	0.291288	0.276605
2.408	-0.00952062	0.276605
2.409	0.0862478	0.276605
2.41	-0.107121	0.276605
2.411	-0.262993	0.276605
2.412	-0.0953596	0.276605
2.413	0.186656	0.276605
2.414	0.305175	0.276605
2.415	0.012652	0.276605
2.416	-0.274128	0.276605
2.417	-0.25424	0.276605
2.418	0.171031	0.276605
2.419	0.275693	0.276605
2.42	0.00808899	0.276605
2.421	-0.128535	0.276605
2.422	-0.157286	0.276605
2.423	-0.0625373	0.276605
2.424	0.181726	0.276605
2.425	0.205993	0.276605
2.426	-0.0844625	0.276605
2.427	-0.236053	0.276605
2.428	-0.0441025	0.276605
2.429	0.125991	0.276605
2.43	0.0878518	0.276605
2.431	-0.00260474	0.276605
2.432	-0.0850953	0.276605
2.433	-0.0499113	0.276605
2.434	0.0753417	0.276605
2.435	0.146551	0.276605
2.436	0.0954507	0.276605
2.437	-0.224225	0.276605
2.438	-0.308251	0.276605
2.439	0.00771503	0.276605
2.44	0.233682	0.276605
2.441	0.186865	0.276605
2.442	0.170882	0.276605
2.443	-0.012821	0.276605
2.444	-0.336118	0.276605
2.445	-0.207559	0.276605
2.446	-0.0771937	0.276605
2.447	0.153527	0.276605
2.448	0.382388	0.276605
2.449	0.0776115	0.276605
2.45	-0.145376	0.276605
2.451	-0.0708857	0.276605
2.452	-0.13521	0.276605
2.453	-0.153795	0.276605
2.454	0.101715	0.276605
2.455	0.0156456	0.276605
2.456	0.0389791	0.276605
2.457	0.174809	0.276605
2.458	0.154371	0.276605
2.459	0.010158	0.276605
2.46	-0.241358	0.276605
2.461	-0.375126	0.276605
2.462	0.0021639	0.276605
2.463	0.420643	0.276605
2.464	0.0850276	0.276605
2.465	-0.211145	0.276605
2.466	0.00256567	0.276605
2.467	0.127996	0.276605
2.468	0.0239336	0.276605
2.469	0.027341	0.276605
2.47	-0.117152	0.276605
2.471	-0.219989	0.276605
2.472	-0.114007	0.276605
2.473	0.209399	0.276605
2.474	0.362672	0.276605
2.475	0.109665	0.276605
2.476	-0.18302	0.276605
2.477	-0.397515	0.276605
2.478	-0.151833	0.276605
2.479	0.215469	0.276605
2.48	0.205367	0.276605
2.481	0.19394	0.276605
2.482	-0.0739096	0.276605
2.483	-0.187848	0.276605
2.484	-0.0692152	0.276605
2.485	0.0683013	0.276605
2.486	-0.0259487	0.276605
2.487	-0.0775487	0.276605
2.488	0.00102576	0.27623
2.489	0.144829	0.276605
2.49	0.167508	0.276605
2.491	0.0783714	0.276605
2.492	-0.143822	0.276605
2.493	-0.338953	0.276605
2.494	-0.247474	0.276605
2.495	0.144824	0.276605
2.496	0.44489	0.27623
2.497	0.329558	0.27623
2.498	0.00977408	0.276605
2.499	-0.413381	0.27623
2.5	-0.586134	0.276605
2.501	0.0426848	0.276605
2.502	0.553964	0.27623
2.503	0.298949	0.276605
2.504	-0.197261	0.276605
2.505	-0.251413	0.276605
2.506	-0.0672751	0.276605
2.507	0.0893366	0.276605
2.508	0.203956	0.276605
2.509	-0.0465697	0.276605
2.51	-0.209319	0.276605
2.511	-0.0829793	0.276605
2.512	0.179326	0.276605
2.513	0.169259	0.276605
2.514	0.018214	0.276605
2.515	-0.153347	0.276605
2.516	-0.178992	0.276605
2.517	-0.078022	0.276605
2.518	0.244724	0.276605
2.519	0.216099	0.276605
2.52	-0.0927279	0.276605
2.521	-0.193848	0.276605
2.522	-0.119982	0.276605
2.523	0.0220085	0.276605
2.524	0.248683	0.276605
2.525	0.187858	0.276605
2.526	-0.0634588	0.276605
2.527	-0.316675	0.276605
2.528	-0.171004	0.276605
2.529	-0.0840352	0.276605
2.53	0.337133	0.276605
2.531	0.351225	0.276605
2.532	-0.0500527	0.276605
2.533	-0.312512	0.276605
2.534	-0.127507	0.276605
2.535	0.137195	0.276605
2.536	0.11386	0.276605
2.537	-0.0647909	0.276605
2.538	-0.156203	0.276605
2.539	-0.0370953	0.276605
2.54	0.0637877	0.276605
2.541	0.267016	0.276605
2.542	0.202382	0.276605
2.543	-0.276032	0.276605
2.544	-0.481683	0.276605
2.545	0.0477543	0.276605
2.546	0.579969	0.276605
2.547	0.187365	0.276605
2.548	-0.33478	0.276605
2.549	-0.465053	0.276605
2.55	-0.0271265	0.276605
2.551	0.458558	0.276605
2.552	0.36735	0.276605
2.553	-0.168127	0.276605
2.554	-0.303813	0.276605
2.555	-0.149931	0.276605
2.556	0.0160703	0.276605
2.557	0.0640097	0.276605
2.558	0.173397	0.276605
2.559	0.104424	0.276605
2.56	-0.071847	0.276605
2.561	-0.0665592	0.276605
2.562	0.0772859	0.276605
2.563	-0.0749982	0.276605
2.564	-0.276953	0.276605
2.565	0.0511145	0.276605
2.566	0.256128	0.276605
2.567	0.0875028	0.276605
2.568	0.0393408	0.276605
2.569	-0.10915	0.276605
2.57	-0.154838	0.276605
2.571	0.00179918	0.276605
2.572	0.0679901	0.276605
2.573	0.0284545	0.276605
2.574	-0.0539697	0.276605
2.575	0.0170942	0.276605
2.576	0.0977224	0.276605
2.577	-0.150379	0.27623
2.578	0.0144549	0.276605
2.579	0.194602	0.276605
2.58	0.100172	0.27623
2.581	-0.0984926	0.27623
2.582	-0.31532	0.276605
2.583	-0.294181	0.276605
2.584	0.237723	0.27623
2.585	0.457783	0.27623
2.586	0.184842	0.27623
2.587	-0.126874	0.276605
2.588	-0.300144	0.276605
2.589	-0.170988	0.276605
2.59	-0.0371909	0.27623
2.591	0.0917244	0.276605
2.592	0.128395	0.276605
2.593	0.0278372	0.276605
2.594	0.0194773	0.27623
2.595	0.148029	0.27623
2.596	0.014926	0.27623
2.597	-0.179232	0.27623
2.598	-0.130943	0.276605
2.599	-0.131109	0.27623
2.6	0.0158773	0.27623
2.601	0.249411	0.27623
2.602	0.272554	0.27623
2.603	-0.0503597	0.27623
2.604	-0.296421	0.27623
2.605	-0.25906	0.27623
2.606	-0.0226389	0.27623
2.607	0.448617	0.27623
2.608	0.332411	0.27623
2.609	-0.151608	0.27623
2.61	-0.441073	0.27623
2.611	-0.342314	0.27623
2.612	0.192595	0.27623
2.613	0.491672	0.27623
2.614	0.140734	0.27623
2.615	-0.288586	0.27623
2.616	-0.175447	0.27623
2.617	0.0802836	0.276605
2.618	0.0918455	0.276605
2.619	-0.0187591	0.276605
2.62	-0.120998	0.276605
2.621	-0.0389595	0.276605
2.622	0.0823164	0.27623
2.623	0.190211	0.27623
2.624	0.140133	0.276605
2.625	-0.0866199	0.27623
2.626	-0.354365	0.27623
2.627	-0.400999	0.27623
2.628	0.218503	0.27623
2.629	0.532676	0.27623
2.63	0.318649	0.27623
2.631	-0.0798557	0.27623
2.632	-0.437275	0.27623
2.633	-0.381675	0.27623
2.634	0.121803	0.27623
2.635	0.217985	0.27623
2.636	0.112356	0.27623
2.637	0.0268207	0.27623
2.638	-0.0624491	0.276605
2.639	-0.00742073	0.27623
2.64	0.0315196	0.27623
2.641	0.0426571	0.276605
2.642	-0.0275929	0.27623
2.643	-0.179562	0.276605
2.644	-0.102059	0.276605
2.645	0.165848	0.276605
2.646	0.18769	0.276605
2.647	0.021208	0.27623
2.648	-0.114571	0.276605
2.649	-0.156974	0.276605
2.65	-0.0541063	0.276605
2.651	0.116129	0.276605
2.652	0.19237	0.276605
2.653	-6.91787e-05	0.276605
2.654	-0.163787	0.27623
2.655	-0.075063	0.27623
2.656	0.0760891	0.27623
2.657	0.0958415	0.276605
2.658	0.0319582	0.27623
2.659	-0.124024	0.276605
2.66	-0.216461	0.276605
2.661	0.0178271	0.276605
2.662	0.246697	0.276605
2.663	0.228088	0.27623
2.664	-0.00451892	0.27623
2.665	-0.23806	0.27623
2.666	-0.265433	0.276605
2.667	-0.023233	0.27623
2.668	0.298206	0.27623
2.669	0.226765	0.27623
2.67	-0.121407	0.27623
2.671	-0.205431	0.27623
2.672	-0.072468	0.27623
2.673	0.0271854	0.27623
2.674	0.164739	0.27623
2.675	0.108808	0.27623
2.676	-0.104008	0.276605
2.677	-0.266792	0.27623
2.678	-0.0227652	0.27623
2.679	0.209517	0.27623
2.68	0.344677	0.276605
2.681	0.262764	0.27623
2.682	-0.34835	0.276605
2.683	-0.706256	0.27623
2.684	-0.154387	0.27623
2.685	0.175529	0.27623
2.686	0.439323	0.27623
2.687	0.532123	0.27623
2.688	0.0755166	0.276605
2.689	-0.419382	0.276605
2.69	-0.167945	0.27623
2.691	-0.118069	0.27623
2.692	-0.242041	0.276605
2.693	0.0341098	0.27623
2.694	0.243833	0.27623
2.695	0.217253	0.27623
2.696	0.112753	0.27623
2.697	-0.0776518	0.27623
2.698	-0.208466	0.27623
2.699	-0.1965	0.276605
2.7	0.0250834	0.276605
2.701	0.220497	0.27623
2.702	0.314509	0.276605
2.703	0.29903	0.276605
2.704	-0.470263	0.276605
2.705	-0.906083	0.276605
2.706	-0.130688	0.276605
2.707	0.85012	0.276605
2.708	0.565502	0.27623
2.709	-0.106519	0.276605
2.71	-0.28282	0.276605
2.711	-0.15188	0.276605
2.712	-0.0232156	0.276605
2.713	-0.0969728	0.276605
2.714	-0.0657691	0.276605
2.715	0.0165654	0.276605
2.716	0.046343	0.27623
2.717	0.132975	0.276605
2.718	0.223295	0.276605
2.719	0.15007	0.276605
2.72	-0.182559	0.276605
2.721	-0.358941	0.276605
2.722	-0.188328	0.276605
2.723	0.0818284	0.276605
2.724	0.222895	0.276605
2.725	0.268461	0.27623
2.726	0.0325049	0.27623
2.727	-0.202296	0.27623
2.728	-0.118248	0.27623
2.729	0.0774324	0.27623
2.73	-0.00650989	0.27623
2.731	-0.116752	0.276605
2.732	0.0163756	0.27623
2.733	0.00397446	0.27623
2.734	0.0952491	0.27623
2.735	0.180763	0.27623
2.736	-0.00437418	0.27623
2.737	-0.204456	0.27623
2.738	-0.138244	0.27623
2.739	0.0323687	0.27623
2.74	0.140932	0.27623
2.741	0.122194	0.27623
2.742	-0.0105381	0.27623
2.743	-0.181155	0.27623
2.744	-0.15133	0.27623
2.745	0.144791	0.27623
2.746	0.201221	0.27623
2.747	0.0102724	0.27623
2.748	-0.148551	0.276605
2.749	-0.177047	0.27623
2.75	0.00572818	0.27623
2.751	0.194543	0.27623
2.752	0.216688	0.276605
2.753	-0.0694889	0.27623
2.754	-0.197315	0.276605
2.755	-0.136666	0.27623
2.756	0.0215274	0.276605
2.757	0.114194	0.27623
2.758	0.134101	0.276605
2.759	-0.0386359	0.276605
2.76	-0.216116	0.27623
2.761	0.0676497	0.276605
2.762	0.248242	0.27623
2.763	0.0321924	0.27623
2.764	-0.162471	0.27623
2.765	-0.127593	0.276605
2.766	-0.189849	0.276605
2.767	0.197574	0.276605
2.768	0.230401	0.276605
2.769	-0.0151028	0.276605
2.77	-0.11945	0.276605
2.771	-0.100424	0.276605
2.772	0.0509922	0.276605
2.773	0.00428668	0.276605
2.774	0.0574125	0.276605
2.775	0.122453	0.276605
2.776	-0.117796	0.276605
2.777	-0.173909	0.276605
2.778	0.129133	0.276605
2.779	0.0275903	0.276605
2.78	-0.00422714	0.276605
2.781	0.0163038	0.276605
2.782	-0.12445	0.276605
2.783	0.0203653	0.276605
2.784	0.152461	0.276605
2.785	0.0532774	0.276605
2.786	0.0504439	0.276605
2.787	-0.138499	0.276605
2.788	-0.305286	0.276605
2.789	0.0863899	0.276605
2.79	0.213406	0.276605
2.791	0.158166	0.276605
2.792	-0.00565234	0.276605
2.793	-0.148602	0.27623
2.794	-0.349574	0.276605
2.795	0.0571391	0.276605
2.796	0.408917	0.276605
2.797	0.204829	0.276605
2.798	-0.192806	0.276605
2.799	-0.293457	0.27623
2.8	-0.0764479	0.276605
2.801	0.0665569	0.276605
2.802	0.12297	0.276605
2.803	0.165787	0.276605
2.804	-0.0219909	0.276605
2.805	-0.132317	0.276605
2.806	-0.0974634	0.27623
2.807	0.0254486	0.276605
2.808	0.127424	0.27623
2.809	0.149286	0.27623
2.81	-0.0494988	0.276605
2.811	-0.356735	0.276605
2.812	-0.120036	0.276605
2.813	0.275	0.276605
2.814	0.24524	0.27623
2.815	-0.000468049	0.27623
2.816	-0.114439	0.276605
2.817	-0.168568	0.276605
2.818	-0.0496507	0.276605
2.819	0.161056	0.276605
2.82	0.14169	0.276605
2.821	-0.117165	0.276605
2.822	-0.20201	0.276605
2.823	-0.0341713	0.276605
2.824	0.116188	0.276605
2.825	0.194165	0.276605
2.826	0.118999	0.276605
2.827	-0.0579976	0.276605
2.828	-0.186596	0.276605
2.829	-0.0906413	0.276605
2.83	-0.0341349	0.276605
2.831	-0.0928161	0.276605
2.832	0.161436	0.276605
2.833	0.102908	0.276605
2.834	0.0470599	0.276605
2.835	0.0326167	0.276605
2.836	0.0841417	0.276605
2.837	-0.0301274	0.276605
2.838	-0.274275	0.276605
2.839	-0.18645	0.276605
2.84	0.0971119	0.276605
2.841	0.200652	0.276605
2.842	0.108612	0.276605
2.843	-0.00671798	0.276605
2.844	-0.144338	0.276605
2.845	-0.115062	0.276605
2.846	0.135803	0.276605
2.847	0.134797	0.276605
2.848	-7.42158e-05	0.276605
2.849	-0.122116	0.276605
2.85	-0.0923511	0.276605
2.851	0.0345326	0.276605
2.852	0.0651643	0.276605
2.853	0.0525047	0.276605
2.854	-0.155775	0.276605
2.855	-0.0960579	0.276605
2.856	0.0591567	0.276605
2.857	0.113252	0.276605
2.858	0.197438	0.276605
2.859	0.0752317	0.276605
2.86	-0.0775345	0.276605
2.861	-0.125477	0.276605
2.862	-0.100212	0.276605
2.863	-0.441826	0.276605
2.864	0.148675	0.276605
2.865	0.447906	0.276605
2.866	0.0458107	0.276605
2.867	-0.0183303	0.276605
2.868	-0.0135427	0.276605
2.869	-0.0101176	0.276605
2.87	-0.0512024	0.276605
2.871	-0.155728	0.276605
2.872	-0.0997281	0.276605
2.873	0.0217024	0.276605
2.874	0.220305	0.276605
2.875	0.104227	0.276605
2.876	-0.0762404	0.276605
2.877	-0.134039	0.276605
2.878	0.0403544	0.276605
2.879	0.00595018	0.276605
2.88	-0.0145433	0.276605
2.881	0.0836437	0.276605
2.882	0.0145639	0.276605
2.883	-0.0294173	0.276605
2.884	-0.144269	0.276605
2.885	0.0135086	0.276605
2.886	0.173077	0.276605
2.887	0.00251631	0.276605
2.888	-0.103996	0.276605
2.889	-0.0914127	0.276605
2.89	0.117199	0.276605
2.891	0.13549	0.276605
2.892	-0.0628332	0.276605
2.893	-0.071495	0.276605
2.894	-0.1046	0.276605
2.895	-0.0618973	0.276605
2.896	0.0635164	0.276605
2.897	0.120881	0.276605
2.898	0.144354	0.276605
2.899	0.0384451	0.276605
2.9	-0.188142	0.276605
2.901	-0.186489	0.276605
2.902	0.131704	0.276605
2.903	0.203547	0.276605
2.904	-0.195292	0.276605
2.905	-0.268971	0.276605
2.906	0.0400284	0.276605
2.907	0.228913	0.276605
2.908	0.239683	0.276605
2.909	0.224817	0.276605
2.91	-0.0893997	0.276605
2.911	-0.426038	0.276605
2.912	-0.357648	0.276605
2.913	-0.0287384	0.276605
2.914	0.391058	0.276605
2.915	0.285895	0.276605
2.916	0.0325614	0.276605
2.917	-0.278302	0.276605
2.918	-0.18193	0.276605
2.919	0.21471	0.276605
2.92	0.230646	0.276605
2.921	0.0805884	0.276605
2.922	-0.313719	0.276605
2.923	-0.354106	0.276605
2.924	0.139911	0.276605
2.925	0.28059	0.276605
2.926	-0.112566	0.276605
2.927	-0.131617	0.276605
2.928	0.0353203	0.276605
2.929	0.279923	0.276605
2.93	0.333926	0.276605
2.931	0.00379007	0.276605
2.932	-0.403818	0.276605
2.933	-0.576254	0.276605
2.934	-0.0310039	0.276605
2.935	0.316419	0.276605
2.936	0.16271	0.276605
2.937	0.324273	0.276605
2.938	0.23647	0.276605
2.939	-0.212864	0.276605
2.94	-0.45941	0.276605
2.941	-0.119339	0.276605
2.942	0.262652	0.276605
2.943	0.0674206	0.276605
2.944	-0.171394	0.276605
2.945	-0.0181854	0.276605
2.946	0.220488	0.276605
2.947	0.185266	0.276605
2.948	-0.0421201	0.276605
2.949	-0.209887	0.276605
2.95	-0.177987	0.276605
2.951	-0.0819124	0.276605
2.952	0.0799443	0.276605
2.953	0.213381	0.276605
2.954	0.144806	0.276605
2.955	-0.00973069	0.276605
2.956	-0.00845289	0.276605
2.957	0.0417407	0.276605
2.958	-0.174725	0.276605
2.959	-0.463664	0.276605
2.96	0.00112964	0.276605
2.961	0.320549	0.276605
2.962	0.251216	0.276605
2.963	0.105014	0.276605
2.964	0.0806995	0.276605
2.965	-0.120277	0.276605
2.966	-0.372582	0.276605
2.967	-0.115792	0.276605
2.968	0.14707	0.276605
2.969	0.265526	0.276605
2.97	0.0575711	0.276605
2.971	-0.269867	0.276605
2.972	-0.178678	0.276605
2.973	0.0892255	0.276605
2.974	0.230844	0.276605
2.975	0.137453	0.276605
2.976	0.1839	0.276605
2.977	-0.223153	0.276605
2.978	-0.360058	0.27623
2.979	-0.0731251	0.276605
2.98	0.0343042	0.276605
2.981	0.191585	0.276605
2.982	0.187767	0.27623
2.983	-0.0699357	0.276605
2.984	0.0263269	0.276605
2.985	-0.0385861	0.276605
2.986	0.0230865	0.276605
2.987	-0.0449149	0.276605
2.988	-0.141083	0.276605
2.989	-0.0574553	0.276605
2.99	0.0763209	0.27623
2.991	0.14384	0.276605
2.992	0.0826679	0.276605
2.993	-0.0982371	0.27623
2.994	-0.122699	0.276605
2.995	-0.0139797	0.276605
2.996	0.120179	0.27623
2.997	0.0791707	0.276605
2.998	-0.0244459	0.276605
2.999	-0.0852275	0.276605
3	-0.0685596	0.276605
3.001	-0.0824845	0.276605
3.002	0.113209	0.276605
3.003	0.221991	0.276605
3.004	-0.0441129	0.276605
3.005	-0.215622	0.276605
3.006	-0.0945656	0.276605
3.007	0.104728	0.276605
3.008	0.207671	0.276605
3.009	0.0724255	0.276605
3.01	-0.136543	0.27623
3.011	-0.247028	0.276605
3.012	-0.0528732	0.276605
3.013	0.207141	0.276605
3.014	0.192832	0.276605
3.015	-0.0273296	0.276605
3.016	-0.171895	0.276605
3.017	-0.148109	0.276605
3.018	-0.00479931	0.27623
3.019	0.201065	0.276605
3.02	0.239981	0.276605
3.021	-0.0419635	0.276605
3.022	-0.185753	0.27623
3.023	-0.162067	0.276605
3.024	-0.146391	0.276605
3.025	0.0105857	0.276605
3.026	0.301163	0.27623
3.027	0.176044	0.276605
3.028	-0.104387	0.276605
3.029	-0.0106523	0.276605
3.03	0.0174992	0.27623
3.031	-0.0852809	0.276605
3.032	-0.199345	0.276605
3.033	-0.150154	0.276605
3.034	0.139521	0.276605
3.035	0.315319	0.276605
3.036	0.293044	0.276605
3.037	-0.257491	0.276605
3.038	-0.423791	0.276605
3.039	-0.0220243	0.276605
3.04	0.199814	0.276605
3.041	0.211892	0.276605
3.042	0.076585	0.276605
3.043	-0.118153	0.276605
3.044	-0.168584	0.276605
3.045	-0.0463366	0.276605
3.046	0.0193316	0.276605
3.047	0.0467148	0.276605
3.048	0.101597	0.276605
3.049	0.049085	0.276605
3.05	-0.0865159	0.276605
3.051	-0.0109723	0.276605
3.052	0.0504471	0.276605
3.053	0.00854401	0.276605
3.054	-0.0951091	0.276605
3.055	-0.0587912	0.276605
3.056	0.0288195	0.276605
3.057	0.0809124	0.276605
3.058	-0.0366804	0.276605
3.059	0.0791815	0.276605
3.06	0.0816801	0.276605
3.061	-0.129184	0.27623
3.062	-0.106315	0.276605
3.063	0.0706249	0.27623
3.064	0.0685135	0.276605
3.065	-0.0474483	0.276605
3.066	-0.0622476	0.27623
3.067	-0.0373135	0.27623
3.068	0.0640949	0.27623
3.069	0.1944	0.27623
3.07	0.065981	0.276605
3.071	-0.232283	0.27623
3.072	-0.129631	0.27623
3.073	0.0255373	0.27623
3.074	0.0975104	0.27623
3.075	0.0742371	0.27623
3.076	-0.0132151	0.27623
3.077	-0.071062	0.27623
3.078	-0.0769172	0.27623
3.079	0.159984	0.27623
3.08	0.0486746	0.27623
3.081	-0.147542	0.27623
3.082	-0.0491927	0.27623
3.083	0.143458	0.27623
3.084	0.205066	0.27623
3.085	-0.227141	0.27623
3.086	-0.269854	0.27623
3.087	0.0211387	0.27623
3.088	0.122894	0.27623
3.089	0.110754	0.27623
3.09	0.132281	0.27623
3.091	0.112885	0.27623
3.092	-0.00825939	0.27623
3.093	-0.177538	0.27623
3.094	-0.371239	0.27623
3.095	-0.106998	0.27623
3.096	0.321917	0.27623
3.097	0.240391	0.27623
3.098	0.0220283	0.27623
3.099	-0.0896109	0.27623
3.1	-0.12261	0.27623
3.101	-0.0510648	0.27623
3.102	0.0951477	0.27623
3.103	0.216158	0.27623
3.104	-0.116376	0.27623
3.105	-0.311266	0.27623
3.106	-0.0727051	0.27623
3.107	0.234266	0.27623
3.108	0.142056	0.27623
3.109	0.0721207	0.27623
3.11	-0.130566	0.27623
3.111	-0.187728	0.27623
3.112	0.0607625	0.276605
3.113	0.196168	0.27623
3.114	0.0675464	0.27623
3.115	-0.089086	0.27623
3.116	-0.146417	0.27623
3.117	-0.244101	0.27623
3.118	0.0280095	0.27623
3.119	0.353404	0.27623
3.12	0.191636	0.27623
3.121	-0.107946	0.276605
3.122	-0.166492	0.27623
3.123	-0.047478	0.276605
3.124	-0.0177144	0.276605
3.125	0.0228249	0.27623
3.126	0.0161579	0.27623
3.127	-0.0231202	0.276605
3.128	-0.0470306	0.27623
3.129	0.0912629	0.276605
3.13	0.120353	0.27623
3.131	0.0116854	0.27623
3.132	-0.078791	0.27623
3.133	-0.104432	0.27623
3.134	-0.0379467	0.276605
3.135	0.0327636	0.27623
3.136	0.112696	0.276605
3.137	-0.0309531	0.27623
3.138	-0.0899828	0.27623
3.139	0.00368557	0.27623
3.14	0.0903086	0.27623
3.141	0.0549391	0.27623
3.142	0.0388445	0.276605
3.143	-0.0261403	0.27623
3.144	-0.1459	0.27623
3.145	-0.161834	0.27623
3.146	0.0821241	0.27623
3.147	0.191917	0.276605
3.148	0.0420132	0.27623
3.149	-0.0372474	0.27623
3.15	-0.0455309	0.276605
3.151	-0.0913413	0.276605
3.152	0.0910023	0.27623
3.153	0.122879	0.27623
3.154	-0.13688	0.27623
3.155	-0.113462	0.27623
3.156	-0.0578017	0.27623
3.157	0.0789572	0.27623
3.158	0.224699	0.27623
3.159	0.0860117	0.27623
3.16	-0.140607	0.27623
3.161	-0.25387	0.27623
3.162	0.0658729	0.27623
3.163	0.207178	0.276605
3.164	-0.0770739	0.276605
3.165	-0.123451	0.27623
3.166	0.0472307	0.27623
3.167	0.0361234	0.276605
3.168	0.043703	0.276605
3.169	0.141709	0.276605
3.17	0.0171499	0.276605
3.171	-0.206738	0.27623
3.172	-0.235078	0.27623
3.173	-0.00863558	0.276605
3.174	0.224669	0.27623
3.175	0.270289	0.276605
3.176	0.120629	0.27623
3.177	-0.206015	0.276605
3.178	-0.452674	0.276605
3.179	-0.0130963	0.276605
3.18	0.350486	0.276605
3.181	0.186439	0.276605
3.182	-0.133576	0.276605
3.183	-0.0607263	0.276605
3.184	-0.183815	0.276605
3.185	-0.0302066	0.276605
3.186	0.31923	0.276605
3.187	0.188103	0.276605
3.188	-0.183664	0.276605
3.189	-0.271459	0.276605
3.19	-0.110686	0.276605
3.191	0.102117	0.276605
3.192	0.218373	0.276605
3.193	0.0854351	0.276605
3.194	-0.0844398	0.276605
3.195	-0.0806241	0.276605
3.196	0.0148811	0.276605
3.197	-0.00693238	0.276605
3.198	-0.0315086	0.276605
3.199	-0.0133494	0.276605
3.2	-0.0149449	0.276605
3.201	0.0334349	0.276605
3.202	0.137356	0.276605
3.203	0.0432938	0.276605
3.204	-0.127436	0.276605
3.205	-0.158691	0.276605
3.206	-0.0884681	0.276605
3.207	0.136276	0.276605
3.208	0.207411	0.276605
3.209	0.129709	0.276605
3.21	-0.0815462	0.276605
3.211	-0.259866	0.276605
3.212	-0.137617	0.276605
3.213	0.0454275	0.276605
3.214	0.158601	0.276605
3.215	0.158555	0.276605
3.216	0.0171313	0.276605
3.217	-0.0919034	0.276605
3.218	-0.125426	0.276605
3.219	0.0294298	0.276605
3.22	0.0757995	0.276605
3.221	-0.117989	0.276605
3.222	-0.00785408	0.276605
3.223	0.0757092	0.276605
3.224	0.0539306	0.276605
3.225	0.0704232	0.276605
3.226	-0.0392082	0.276605
3.227	-0.137788	0.276605
3.228	-0.101454	0.27623
3.229	0.110175	0.276605
3.23	0.159407	0.276605
3.231	0.0980323	0.27623
3.232	-0.0802083	0.276605
3.233	-0.237553	0.276605
3.234	-0.272254	0.276605
3.235	0.124186	0.276605
3.236	0.5283	0.276605
3.237	0.142604	0.276605
3.238	-0.269018	0.276605
3.239	-0.270163	0.276605
3.24	0.0135856	0.276605
3.241	-0.0377469	0.276605
3.242	-0.00134451	0.276605
3.243	0.230555	0.276605
3.244	0.142828	0.276605
3.245	-0.197343	0.276605
3.246	-0.0965295	0.276605
3.247	0.121418	0.276605
3.248	4.77182e-05	0.276605
3.249	-0.112675	0.276605
3.25	-0.107465	0.27623
3.251	0.0698355	0.276605
3.252	0.301244	0.276605
3.253	0.140844	0.276605
3.254	-0.235273	0.276605
3.255	-0.320232	0.276605
3.256	-0.161722	0.276605
3.257	0.218603	0.276605
3.258	0.310065	0.276605
3.259	0.183813	0.276605
3.26	-0.144647	0.276605
3.261	-0.333711	0.276605
3.262	-0.0486187	0.27623
3.263	0.154972	0.276605
3.264	0.123817	0.276605
3.265	0.0149385	0.276605
3.266	-0.104686	0.276605
3.267	-0.0979456	0.276605
3.268	0.0436502	0.276605
3.269	0.153065	0.276605
3.27	-0.0179716	0.27623
3.271	-0.122862	0.27623
3.272	-0.0382395	0.276605
3.273	0.0994121	0.276605
3.274	0.0467708	0.276605
3.275	0.0227041	0.276605
3.276	-0.0123899	0.276605
3.277	-0.0700905	0.276605
3.278	-0.139322	0.276605
3.279	-0.0232302	0.276605
3.28	0.154456	0.276605
3.281	0.147529	0.276605
3.282	0.00367111	0.276605
3.283	-0.13878	0.276605
3.284	-0.10708	0.276605
3.285	0.0313489	0.276605
3.286	0.160295	0.276605
3.287	0.00489845	0.276605
3.288	-0.164054	0.276605
3.289	-0.113901	0.276605
3.29	0.159993	0.276605
3.291	0.154123	0.276605
3.292	0.0496767	0.276605
3.293	-0.0952714	0.276605
3.294	-0.223521	0.276605
3.295	-0.058381	0.276605
3.296	0.130419	0.276605
3.297	0.112833	0.276605
3.298	0.0434581	0.276605
3.299	-0.0907219	0.276605
3.3	-0.0471709	0.276605
3.301	0.084652	0.276605
3.302	0.137452	0.276605
3.303	-0.0507039	0.276605
3.304	-0.216972	0.276605
3.305	-0.0896713	0.276605
3.306	-0.0159947	0.276605
3.307	0.100497	0.276605
3.308	0.224028	0.276605
3.309	0.0489804	0.276605
3.31	-0.00288966	0.276605
3.311	-0.153416	0.276605
3.312	-0.1246	0.276605
3.313	0.0148109	0.276605
3.314	0.15637	0.276605
3.315	-0.0074522	0.276605
3.316	-0.179834	0.276605
3.317	-0.0338437	0.276605
3.318	0.0517275	0.276605
3.319	0.217894	0.276605
3.32	0.179718	0.276605
3.321	-0.149755	0.276605
3.322	-0.215099	0.276605
3.323	-0.0338651	0.276605
3.324	0.00780661	0.276605
3.325	-0.042224	0.276605
3.326	0.175787	0.276605
3.327	0.120663	0.276605
3.328	-0.268339	0.276605
3.329	0.0606078	0.276605
3.33	0.220399	0.276605
3.331	-0.0726057	0.276605
3.332	-0.0839325	0.276605
3.333	-0.0465784	0.276605
3.334	-0.086347	0.276605
3.335	0.0482248	0.276605
3.336	0.148686	0.276605
3.337	-0.0063202	0.276605
3.338	-0.136764	0.276605
3.339	-0.0106978	0.276605
3.34	0.114025	0.276605
3.341	0.105542	0.276605
3.342	0.0146831	0.276605
3.343	-0.2029	0.276605
3.344	-0.126159	0.276605
3.345	0.0725873	0.276605
3.346	0.133301	0.276605
3.347	0.0822093	0.276605
3.348	-0.0376528	0.276605
3.349	-0.103856	0.276605
3.35	-0.0422842	0.276605
3.351	0.0275973	0.276605
3.352	0.0890936	0.276605
3.353	0.0806675	0.276605
3.354	-0.0783922	0.276605
3.355	-0.177375	0.276605
3.356	-0.0350478	0.276605
3.357	0.133143	0.276605
3.358	0.154641	0.276605
3.359	0.0341121	0.276605
3.36	-0.0929123	0.276605
3.361	-0.148362	0.276605
3.362	-0.00290461	0.276605
3.363	0.063673	0.276605
3.364	0.0245878	0.276605
3.365	-0.029798	0.276605
3.366	-0.0560229	0.276605
3.367	0.0162464	0.276605
3.368	0.0911113	0.276605
3.369	0.186439	0.276605
3.37	-0.0154082	0.276605
3.371	-0.213572	0.276605
3.372	-0.154433	0.276605
3.373	-0.0427104	0.276605
3.374	0.131369	0.276605
3.375	0.17649	0.276605
3.376	0.033683	0.27623
3.377	-0.109113	0.276605
3.378	-0.171297	0.276605
3.379	0.0979286	0.276605
3.38	0.200024	0.276605
3.381	0.0117836	0.276605
3.382	-0.158942	0.276605
3.383	-0.135655	0.276605
3.384	-0.0669702	0.276605
3.385	0.143499	0.276605
3.386	0.275718	0.276605
3.387	-0.0764182	0.276605
3.388	-0.140819	0.276605
3.389	-0.129974	0.276605
3.39	-0.0731867	0.276605
3.391	0.143381	0.276605
3.392	0.22813	0.276605
3.393	0.0788537	0.276605
3.394	-0.130489	0.276605
3.395	-0.213003	0.276605
3.396	-0.110664	0.276605
3.397	0.043429	0.276605
3.398	0.206983	0.276605
3.399	0.0677906	0.276605
3.4	-0.00372036	0.276605
3.401	-0.175021	0.276605
3.402	0.00551419	0.276605
3.403	0.234884	0.276605
3.404	-0.0838484	0.276605
3.405	-0.104626	0.276605
3.406	-0.0592562	0.276605
3.407	-0.0362051	0.276605
3.408	0.0184691	0.276605
3.409	0.117147	0.276605
3.41	0.130561	0.276605
3.411	-0.0812597	0.276605
3.412	-0.0471349	0.276605
3.413	-0.00731776	0.276605
3.414	-0.0426425	0.276605
3.415	-0.0662717	0.276605
3.416	0.0188466	0.276605
3.417	0.0705025	0.276605
3.418	0.0718272	0.276605
3.419	0.0973046	0.276605
3.42	-0.0486261	0.276605
3.421	-0.216116	0.276605
3.422	-0.136731	0.276605
3.423	0.221813	0.276605
3.424	0.09642	0.276605
3.425	0.0248873	0.276605
3.426	0.00533829	0.276605
3.427	-0.151213	0.276605
3.428	-0.109637	0.276605
3.429	0.109165	0.276605
3.43	0.0879495	0.276605
3.431	0.117215	0.276605
3.432	-0.0844361	0.276605
3.433	-0.250106	0.276605
3.434	-0.03412	0.276605
3.435	0.252855	0.276605
3.436	0.152546	0.276605
3.437	-0.0855778	0.276605
3.438	-0.181411	0.276605
3.439	-0.0662602	0.276605
3.44	0.0774314	0.276605
3.441	0.113185	0.276605
3.442	0.0203183	0.276605
3.443	-0.0397815	0.276605
3.444	-0.101097	0.276605
3.445	-0.0365781	0.276605
3.446	0.109199	0.27623
3.447	0.0600519	0.276605
3.448	-0.0235829	0.276605
3.449	-0.0653951	0.276605
3.45	-0.0649473	0.276605
3.451	-0.0165665	0.276605
3.452	0.131725	0.276605
3.453	0.152023	0.276605
3.454	-0.0852419	0.276605
3.455	-0.191034	0.276605
3.456	-0.0692576	0.276605
3.457	0.0781676	0.276605
3.458	0.130891	0.276605
3.459	0.0622866	0.27623
3.46	-0.0616567	0.276605
3.461	-0.145222	0.27623
3.462	0.0064003	0.27623
3.463	0.115443	0.276605
3.464	0.103831	0.276605
3.465	-0.0377919	0.276605
3.466	-0.149077	0.276605
3.467	-0.0970295	0.276605
3.468	0.0495144	0.27623
3.469	0.180455	0.276605
3.47	0.0449755	0.276605
3.471	-0.131766	0.276605
3.472	-0.0931759	0.276605
3.473	0.0762611	0.276605
3.474	0.0808584	0.276605
3.475	0.0425298	0.276605
3.476	-0.0414928	0.276605
3.477	-0.125184	0.276605
3.478	-0.08307	0.276605
3.479	0.115395	0.276605
3.48	0.111526	0.276605
3.481	0.00270405	0.276605
3.482	-0.0808633	0.276605
3.483	-0.0680895	0.276605
3.484	-0.0177538	0.276605
3.485	0.165652	0.276605
3.486	0.120436	0.276605
3.487	-0.160531	0.276605
3.488	-0.150663	0.276605
3.489	0.00271453	0.276605
3.49	-0.00108534	0.276605
3.491	0.111278	0.276605
3.492	0.171827	0.276605
3.493	-0.0293708	0.276605
3.494	-0.237706	0.276605
3.495	-0.10858	0.276605
3.496	0.215697	0.276605
3.497	0.28227	0.276605
3.498	-0.109929	0.276605
3.499	-0.334115	0.276605
3.5	-0.146638	0.276605
3.501	0.108568	0.276605
3.502	0.292815	0.276605
3.503	0.138752	0.276605
3.504	-0.116147	0.276605
3.505	-0.0743405	0.276605
3.506	-0.141269	0.276605
3.507	-0.042636	0.276605
3.508	0.162959	0.276605
3.509	0.0838792	0.276605
3.51	-0.0955112	0.276605
3.511	-0.170439	0.276605
3.512	0.0444166	0.276605
3.513	0.167174	0.276605
3.514	0.0817328	0.276605
3.515	-0.0522175	0.276605
3.516	-0.0944428	0.276605
3.517	-0.0697798	0.276605
3.518	-0.00225223	0.276605
3.519	0.108738	0.276605
3.52	0.0656485	0.276605
3.521	-0.0383621	0.276605
3.522	-0.129358	0.276605
3.523	-0.0411449	0.276605
3.524	0.0795541	0.276605
3.525	0.140054	0.276605
3.526	-0.00445473	0.276605
3.527	-0.128518	0.276605
3.528	-0.0726065	0.276605
3.529	0.097923	0.276605
3.53	0.0562864	0.276605
3.531	-0.00592214	0.276605
3.532	-0.0533903	0.276605
3.533	-0.0696401	0.276605
3.534	-0.00701753	0.276605
3.535	0.109032	0.276605
3.536	0.154605	0.276605
3.537	-0.0859647	0.276605
3.538	-0.201401	0.276605
3.539	-0.0828047	0.276605
3.54	0.0651085	0.276605
3.541	0.144697	0.276605
3.542	0.137927	0.276605
3.543	0.0117819	0.276605
3.544	-0.158235	0.276605
3.545	-0.0872314	0.276605
3.546	0.047976	0.276605
3.547	0.00356517	0.276605
3.548	-0.0709212	0.276605
3.549	-0.000994991	0.276605
3.55	0.0299976	0.276605
3.551	0.0747886	0.276605
3.552	0.163621	0.276605
3.553	0.036068	0.276605
3.554	-0.19032	0.276605
3.555	-0.164963	0.276605
3.556	-0.0146071	0.276605
3.557	0.0796098	0.276605
3.558	0.137526	0.276605
3.559	0.0883345	0.276605
3.56	-0.0926211	0.276605
3.561	-0.200922	0.276605
3.562	0.0450007	0.276605
3.563	0.154741	0.276605
3.564	0.050938	0.276605
3.565	-0.0261973	0.276605
3.566	-0.107305	0.276605
3.567	-0.101421	0.276605
3.568	0.057476	0.276605
3.569	0.188534	0.276605
3.57	0.0157883	0.276605
3.571	-0.155262	0.276605
3.572	-0.0807429	0.276605
3.573	0.0400522	0.276605
3.574	0.0927974	0.276605
3.575	0.0716998	0.276605
3.576	-0.0693812	0.276605
3.577	-0.128261	0.276605
3.578	-0.00598594	0.276605
3.579	0.114931	0.276605
3.58	0.0945254	0.276605
3.581	0.0537265	0.276605
3.582	-0.0778952	0.276605
3.583	-0.184791	0.276605
3.584	-0.0906463	0.276605
3.585	0.0548636	0.276605
3.586	0.20563	0.276605
3.587	0.0778433	0.276605
3.588	-0.0926514	0.276605
3.589	-0.0634241	0.276605
3.59	-0.00742342	0.276605
3.591	0.0471881	0.276605
3.592	0.0367743	0.276605
3.593	-0.029538	0.276605
3.594	-0.147989	0.276605
3.595	-0.0334647	0.276605
3.596	0.131101	0.276605
3.597	0.102083	0.276605
3.598	0.0146804	0.276605
3.599	-0.0959832	0.276605
3.6	-0.0688941	0.276605
3.601	0.0495422	0.276605
3.602	0.103071	0.276605
3.603	0.0136309	0.276605
3.604	-0.148196	0.276605
3.605	-0.089254	0.276605
3.606	0.0174156	0.276605
3.607	0.11223	0.276605
3.608	0.132936	0.276605
3.609	-0.00473217	0.276605
3.61	-0.141761	0.276605
3.611	-0.106492	0.276605
3.612	0.117316	0.276605
3.613	0.113245	0.276605
3.614	-0.018618	0.276605
3.615	-0.103798	0.276605
3.616	-0.115955	0.276605
3.617	-0.0444077	0.276605
3.618	0.0971884	0.276605
3.619	0.269977	0.276605
3.62	0.0810163	0.276605
3.621	-0.21697	0.276605
3.622	-0.196956	0.276605
3.623	-0.00362587	0.276605
3.624	0.0979685	0.276605
3.625	0.125397	0.276605
3.626	0.0126031	0.276605
3.627	-0.137175	0.276605
3.628	-0.0762831	0.276605
3.629	0.115981	0.276605
3.63	0.1168	0.276605
3.631	0.02095	0.276605
3.632	-0.086179	0.276605
3.633	-0.133261	0.276605
3.634	-0.088658	0.276605
3.635	0.109073	0.276605
3.636	0.258223	0.276605
3.637	-0.0455055	0.276605
3.638	-0.211218	0.276605
3.639	-0.0588176	0.276605
3.64	0.0689113	0.276605
3.641	0.113017	0.276605
3.642	0.082588	0.276605
3.643	-0.0513735	0.276605
3.644	-0.212569	0.276605
3.645	-0.0352411	0.276605
3.646	0.159477	0.276605
3.647	0.111595	0.27623
3.648	-0.0208476	0.276605
3.649	-0.0991676	0.276605
3.65	-0.0672287	0.276605
3.651	0.0294918	0.276605
3.652	0.139398	0.27623
3.653	0.0357383	0.27623
3.654	-0.196313	0.27623
3.655	-0.126282	0.27623
3.656	0.093025	0.27623
3.657	0.181705	0.276605
3.658	0.101613	0.27623
3.659	-0.0102322	0.27623
3.66	-0.176654	0.276605
3.661	-0.211461	0.276605
3.662	0.0259777	0.27623
3.663	0.180074	0.27623
3.664	0.165635	0.276605
3.665	-0.0274039	0.27623
3.666	-0.0945319	0.27623
3.667	-0.11759	0.27623
3.668	-0.0363212	0.27623
3.669	0.169366	0.276605
3.67	0.0362851	0.276605
3.671	-0.113102	0.276605
3.672	-0.0603871	0.27623
3.673	0.0524643	0.276605
3.674	0.118482	0.276605
3.675	0.0450761	0.276605
3.676	-0.0351172	0.276605
3.677	-0.164491	0.276605
3.678	-0.13515	0.27623
3.679	0.034043	0.276605
3.68	0.225029	0.276605
3.681	0.224629	0.276605
3.682	-0.0616999	0.27623
3.683	-0.314442	0.276605
3.684	-0.111854	0.27623
3.685	0.140017	0.27623
3.686	0.171112	0.27623
3.687	-0.0353078	0.27623
3.688	-0.0687613	0.27623
3.689	-0.0235581	0.27623
3.69	0.00520904	0.27623
3.691	0.0936204	0.27623
3.692	0.0189957	0.27623
3.693	-0.0915769	0.27623
3.694	-0.152189	0.27623
3.695	0.0333243	0.27623
3.696	0.185381	0.27623
3.697	0.0716428	0.27623
3.698	-0.0427509	0.27623
3.699	-0.072842	0.27623
3.7	-0.0902076	0.27623
3.701	-0.0527846	0.27623
3.702	0.107578	0.27623
3.703	0.145634	0.27623
3.704	-0.113087	0.27623
3.705	-0.14973	0.27623
3.706	0.0685268	0.27623
3.707	0.146577	0.27623
3.708	0.0706647	0.27623
3.709	-0.0420915	0.27623
3.71	-0.154687	0.27623
3.711	-0.146751	0.27623
3.712	0.0687029	0.27623
3.713	0.124876	0.27623
3.714	0.079471	0.27623
3.715	0.0232874	0.27623
3.716	-0.0457854	0.27623
3.717	-0.0761619	0.27623
3.718	-0.0504357	0.27623
3.719	0.0925904	0.27623
3.72	0.00699942	0.27623
3.721	-0.121284	0.27623
3.722	-0.0482723	0.27623
3.723	0.126941	0.27623
3.724	0.142696	0.27623
3.725	0.0218173	0.27623
3.726	-0.0606411	0.27623
3.727	-0.182458	0.27623
3.728	-0.109912	0.27623
3.729	0.139957	0.27623
3.73	0.106822	0.27623
3.731	-0.00873193	0.27623
3.732	-0.0207215	0.27623
3.733	-0.0682757	0.27623
3.734	-0.0095919	0.27623
3.735	0.150898	0.27623
3.736	0.187153	0.27623
3.737	-0.198826	0.27623
3.738	-0.321939	0.27623
3.739	-0.0616893	0.27623
3.74	0.0694345	0.27623
3.741	0.303275	0.27623
3.742	0.299328	0.27623
3.743	-0.0681804	0.27623
3.744	-0.351093	0.27623
3.745	-0.135364	0.27623
3.746	0.0994014	0.27623
3.747	0.0429325	0.27623
3.748	-0.0228009	0.27623
3.749	0.0306352	0.27623
3.75	0.0236081	0.27623
3.751	-0.00424848	0.27623
3.752	0.0872411	0.27623
3.753	0.114987	0.27623
3.754	-0.0737187	0.27623
3.755	-0.0985684	0.27623
3.756	-0.0100317	0.27623
3.757	-0.177084	0.27623
3.758	-0.154226	0.27623
3.759	0.231622	0.27623
3.76	0.255434	0.27623
3.761	0.0533553	0.27623
3.762	-0.0489377	0.27623
3.763	-0.115882	0.27623
3.764	-0.0763495	0.27623
3.765	-0.0803907	0.27623
3.766	-0.0437986	0.27623
3.767	0.11268	0.27623
3.768	0.122606	0.27623
3.769	0.0797675	0.27623
3.77	-0.0944488	0.27623
3.771	-0.156326	0.27623
3.772	-0.0904972	0.27623
3.773	0.0729051	0.276605
3.774	0.234146	0.276605
3.775	0.113101	0.27623
3.776	-0.121664	0.27623
3.777	-0.216768	0.27623
3.778	-0.123161	0.276605
3.779	0.161045	0.27623
3.78	0.14833	0.27623
3.781	0.0303162	0.276605
3.782	-0.0905545	0.27623
3.783	-0.145558	0.27623
3.784	-0.0156738	0.276605
3.785	0.194804	0.27623
3.786	0.15557	0.27623
3.787	-0.156398	0.27623
3.788	-0.193146	0.27623
3.789	-0.0136068	0.27623
3.79	0.135428	0.27623
3.791	0.130939	0.276605
3.792	0.0390586	0.27623
3.793	-0.147091	0.27623
3.794	-0.196181	0.276605
3.795	0.0128945	0.276605
3.796	0.153525	0.27623
3.797	0.142228	0.276605
3.798	0.0329681	0.276605
3.799	-0.102104	0.276605
3.8	-0.140733	0.27623
3.801	-0.0313489	0.276605
3.802	0.126389	0.27623
3.803	0.0928217	0.27623
3.804	-0.102563	0.27623
3.805	-0.103139	0.276605
3.806	0.0223579	0.276605
3.807	0.0919566	0.276605
3.808	0.101489	0.276605
3.809	0.00580734	0.276605
3.81	-0.134214	0.276605
3.811	-0.160971	0.276605
3.812	0.0859644	0.276605
3.813	0.166078	0.276605
3.814	0.0645755	0.276605
3.815	-0.0567648	0.276605
3.816	-0.158248	0.276605
3.817	-0.0829725	0.276605
3.818	0.0524647	0.27623
3.819	0.175508	0.276605
3.82	0.0422114	0.27623
3.821	-0.106319	0.276605
3.822	-0.0410026	0.27623
3.823	0.0475042	0.276605
3.824	0.0431457	0.27623
3.825	0.0420537	0.276605
3.826	-0.0823854	0.276605
3.827	-0.160993	0.276605
3.828	-0.0425312	0.276605
3.829	0.120187	0.276605
3.83	0.0865595	0.276605
3.831	0.14126	0.27623
3.832	-0.0195243	0.276605
3.833	-0.150031	0.27623
3.834	-0.0551621	0.27623
3.835	0.107704	0.27623
3.836	0.122321	0.27623
3.837	-0.186138	0.276605
3.838	-0.298825	0.276605
3.839	0.0585859	0.276605
3.84	0.296471	0.27623
3.841	0.178196	0.27623
3.842	-0.0183647	0.27623
3.843	-0.106488	0.276605
3.844	-0.117639	0.27623
3.845	-0.0667642	0.276605
3.846	0.00559706	0.27623
3.847	0.0937036	0.276605
3.848	0.00809832	0.27623
3.849	-0.0982325	0.27623
3.85	0.00196409	0.276605
3.851	0.121993	0.276605
3.852	0.0908982	0.276605
3.853	-0.0552434	0.27623
3.854	-0.0855105	0.276605
3.855	-0.00121245	0.276605
3.856	-0.0342105	0.27623
3.857	0.0343421	0.27623
3.858	0.0607318	0.27623
3.859	-0.00154986	0.27623
3.86	-0.10944	0.27623
3.861	-0.0768545	0.27623
3.862	0.0762708	0.27623
3.863	0.130389	0.27623
3.864	0.0561001	0.27623
3.865	0.00200235	0.27623
3.866	-0.0503573	0.27623
3.867	-0.105083	0.27623
3.868	-0.0926198	0.276605
3.869	0.0108184	0.27623
3.87	0.138454	0.27623
3.871	0.000876442	0.27623
3.872	-0.073518	0.27623
3.873	0.0235118	0.27623
3.874	0.118182	0.276605
3.875	0.0635675	0.276605
3.876	-0.0348104	0.276605
3.877	-0.112636	0.276605
3.878	-0.213121	0.276605
3.879	-0.0212297	0.276605
3.88	0.187724	0.276605
3.881	0.138311	0.276605
3.882	0.0773139	0.276605
3.883	-0.0815459	0.27623
3.884	-0.118603	0.27623
3.885	-0.104606	0.27623
3.886	0.0332874	0.27623
3.887	0.198621	0.27623
3.888	-0.0205135	0.27623
3.889	-0.109779	0.27623
3.89	-0.0660483	0.27623
3.891	0.0156211	0.27623
3.892	0.0891745	0.27623
3.893	0.0986912	0.27623
3.894	-0.0129114	0.27623
3.895	-0.184755	0.27623
3.896	-0.0419682	0.27623
3.897	0.127812	0.27623
3.898	0.0911187	0.27623
3.899	-0.0282859	0.27623
3.9	-0.101827	0.276605
3.901	-0.104651	0.27623
3.902	0.0300837	0.27623
3.903	0.212182	0.27623
3.904	0.105691	0.27623
3.905	-0.153534	0.27623
3.906	-0.164593	0.27623
3.907	-0.0206352	0.27623
3.908	0.0890601	0.27623
3.909	0.110078	0.27623
3.91	0.0229526	0.27623
3.911	-0.115836	0.27623
3.912	-0.139008	0.27623
3.913	0.110443	0.276605
3.914	0.169919	0.27623
3.915	0.0724562	0.27623
3.916	-0.0960341	0.27623
3.917	-0.169308	0.27623
3.918	-0.12906	0.27623
3.919	0.0378888	0.27623
3.92	0.268668	0.27623
3.921	0.0679604	0.27623
3.922	-0.181717	0.27623
3.923	-0.0837156	0.27623
3.924	0.0476094	0.27623
3.925	0.0942913	0.27623
3.926	0.0743031	0.27623
3.927	0.0454601	0.27623
3.928	-0.201414	0.27623
3.929	-0.21547	0.27623
3.93	0.124103	0.276605
3.931	0.239849	0.27623
3.932	-0.00447979	0.276605
3.933	-0.125782	0.276605
3.934	-0.143544	0.276605
3.935	0.0863387	0.27623
3.936	0.310648	0.27623
3.937	0.039023	0.27623
3.938	-0.280133	0.27623
3.939	-0.221655	0.276605
3.94	0.0220871	0.276605
3.941	0.156416	0.276605
3.942	0.203868	0.276605
3.943	0.0790201	0.276605
3.944	-0.183405	0.276605
3.945	-0.337775	0.276605
3.946	0.0558864	0.276605
3.947	0.310491	0.276605
3.948	0.211993	0.276605
3.949	-0.0727245	0.276605
3.95	-0.213788	0.276605
3.951	-0.209493	0.276605
3.952	-0.0656067	0.276605
3.953	0.289	0.276605
3.954	0.228773	0.276605
3.955	-0.120982	0.27623
3.956	-0.235251	0.276605
3.957	-0.0780095	0.276605
3.958	0.130836	0.276605
3.959	0.188419	0.27623
3.96	0.0711665	0.27623
3.961	-0.121268	0.27623
3.962	-0.19072	0.27623
3.963	0.000223645	0.27623
3.964	0.0841806	0.276605
3.965	0.0228691	0.27623
3.966	-0.0391276	0.27623
3.967	-0.0230395	0.27623
3.968	0.0487041	0.27623
3.969	0.119559	0.27623
3.97	0.141892	0.27623
3.971	-0.100602	0.27623
3.972	-0.24035	0.27623
3.973	-0.166103	0.27623
3.974	-0.0065766	0.27623
3.975	0.238623	0.27623
3.976	0.238559	0.276605
3.977	0.0271722	0.276605
3.978	-0.186738	0.27623
3.979	-0.148542	0.27623
3.98	0.0392174	0.27623
3.981	0.0734043	0.276605
3.982	-0.0173601	0.276605
3.983	-0.0677364	0.276605
3.984	-0.0186864	0.276605
3.985	0.0576488	0.27623
3.986	0.123388	0.276605
3.987	0.0946934	0.276605
3.988	-0.136266	0.27623
3.989	-0.168732	0.276605
3.99	-0.0248156	0.276605
3.991	0.123019	0.27623
3.992	0.103001	0.27623
3.993	0.0301363	0.276605
3.994	-0.0845471	0.27623
3.995	-0.172032	0.27623
3.996	0.0198162	0.27623
3.997	0.162586	0.276605
3.998	0.0852805	0.276605
3.999	-0.0421698	0.276605
4	-0.101002	0.27623
4.001	-0.10097	0.27623
4.002	0.0337541	0.27623
4.003	0.170982	0.276605
4.004	0.0640341	0.27623
4.005	-0.178545	0.27623
4.006	-0.152629	0.27623
4.007	0.118747	0.276605
4.008	0.179686	0.27623
4.009	0.0458679	0.27623
4.01	-0.104916	0.27623
4.011	-0.131563	0.276605
4.012	-0.112953	0.276605
4.013	0.0848183	0.276605
4.014	0.145908	0.27623
4.015	0.0741663	0.27623
4.016	-0.0399401	0.27623
4.017	-0.0875804	0.276605
4.018	-0.0227255	0.27623
4.019	0.0853859	0.27623
4.02	0.0787804	0.27623
4.021	-0.161639	0.276605
4.022	-0.201851	0.27623
4.023	0.0319551	0.27623
4.024	0.17708	0.27623
4.025	0.226243	0.276605
4.026	0.0529714	0.27623
4.027	-0.154945	0.27623
4.028	-0.21692	0.27623
4.029	-0.0624302	0.276605
4.03	0.139474	0.276605
4.031	0.105497	0.276605
4.032	-0.0338766	0.276605
4.033	-0.0284136	0.276605
4.034	-0.00875999	0.276605
4.035	-0.0850915	0.27623
4.036	0.0145791	0.276605
4.037	0.144744	0.276605
4.038	0.013246	0.276605
4.039	-0.0486345	0.276605
4.04	0.0538105	0.276605
4.041	-0.0287451	0.276605
4.042	-0.036325	0.27623
4.043	-0.0871059	0.276605
4.044	-0.124166	0.276605
4.045	-0.0895025	0.27623
4.046	0.222382	0.276605
4.047	0.288384	0.27623
4.048	0.11639	0.276605
4.049	-0.155683	0.27623
4.05	-0.300875	0.27623
4.051	-0.128797	0.276605
4.052	0.0810236	0.27623
4.053	0.177663	0.276605
4.054	0.0937566	0.276605
4.055	-0.0888813	0.276605
4.056	-0.0924369	0.27623
4.057	0.0064119	0.27623
4.058	0.0935389	0.27623
4.059	0.123326	0.27623
4.06	-0.0204957	0.27623
4.061	-0.187782	0.27623
4.062	-0.18747	0.27623
4.063	0.0889831	0.27623
4.064	0.220255	0.276605
4.065	0.14086	0.276605
4.066	-0.0871391	0.27623
4.067	-0.2147	0.27623
4.068	-0.0686111	0.27623
4.069	0.0891021	0.27623
4.07	0.175003	0.27623
4.071	0.00673057	0.27623
4.072	-0.130225	0.276605
4.073	-0.0594018	0.27623
4.074	0.0323382	0.27623
4.075	0.067147	0.27623
4.076	0.0675201	0.27623
4.077	-0.0314352	0.276605
4.078	-0.137333	0.27623
4.079	-0.0690297	0.27623
4.08	0.117099	0.27623
4.081	0.143019	0.27623
4.082	0.0189097	0.276605
4.083	-0.0878602	0.27623
4.084	-0.135886	0.27623
4.085	-0.0713339	0.27623
4.086	0.106471	0.276605
4.087	0.190251	0.276605
4.088	-0.0160203	0.276605
4.089	-0.135898	0.276605
4.09	-0.0766562	0.276605
4.091	0.0430081	0.276605
4.092	0.0883502	0.276605
4.093	0.0964081	0.276605
4.094	-0.0552686	0.276605
4.095	-0.271514	0.276605
4.096	-0.0275099	0.276605
4.097	0.255696	0.276605
4.098	0.178882	0.276605
4.099	-0.0438665	0.276605
4.1	-0.22284	0.276605
4.101	-0.16072	0.276605
4.102	0.0813226	0.276605
4.103	0.25212	0.276605
4.104	0.0867385	0.276605
4.105	-0.16729	0.276605
4.106	-0.146602	0.276605
4.107	-0.00984557	0.276605
4.108	0.0772055	0.276605
4.109	0.0801243	0.276605
4.11	0.0138068	0.276605
4.111	-0.013251	0.276605
4.112	-0.107797	0.276605
4.113	0.0695734	0.276605
4.114	0.107714	0.276605
4.115	-0.0670161	0.276605
4.116	-0.112186	0.276605
4.117	-0.0191794	0.276605
4.118	0.0363455	0.276605
4.119	0.0665735	0.276605
4.12	0.119405	0.276605
4.121	-0.0726395	0.276605
4.122	-0.106179	0.276605
4.123	-0.0269173	0.276605
4.124	-0.00779843	0.276605
4.125	0.0911376	0.276605
4.126	0.112672	0.276605
4.127	0.00593382	0.276605
4.128	-0.151339	0.276605
4.129	-0.0591277	0.276605
4.13	0.026845	0.276605
4.131	-0.000829332	0.276605
4.132	0.046763	0.276605
4.133	0.0238543	0.276605
4.134	-0.0599516	0.276605
4.135	0.0699343	0.276605
4.136	0.177476	0.276605
4.137	-0.0122599	0.276605
4.138	-0.23539	0.276605
4.139	-0.162371	0.276605
4.14	0.00669846	0.276605
4.141	0.140545	0.276605
4.142	0.176936	0.276605
4.143	0.0861247	0.276605
4.144	-0.0968015	0.276605
4.145	-0.221322	0.276605
4.146	-0.0162468	0.276605
4.147	0.126398	0.276605
4.148	0.0887898	0.276605
4.149	-0.00324522	0.276605
4.15	-0.102713	0.276605
4.151	-0.0737452	0.276605
4.152	0.044783	0.276605
4.153	0.123163	0.276605
4.154	0.0426333	0.276605
4.155	-0.128915	0.276605
4.156	-0.122618	0.276605
4.157	0.0500081	0.276605
4.158	0.148678	0.276605
4.159	0.0779392	0.276605
4.16	-0.0425207	0.276605
4.161	-0.136	0.276605
4.162	-0.146791	0.276605
4.163	0.111656	0.276605
4.164	0.142585	0.276605
4.165	0.0251157	0.276605
4.166	-0.0573265	0.276605
4.167	-0.0910984	0.276605
4.168	-0.0369124	0.276605
4.169	0.0723111	0.276605
4.17	0.157499	0.276605
4.171	-0.040584	0.276605
4.172	-0.156318	0.276605
4.173	-0.0789334	0.276605
4.174	0.0677764	0.276605
4.175	0.105336	0.276605
4.176	0.0589347	0.276605
4.177	-0.0151153	0.276605
4.178	-0.120025	0.276605
4.179	-0.0610045	0.276605
4.18	0.078989	0.276605
4.181	0.0790232	0.276605
4.182	0.00653707	0.276605
4.183	-0.0876112	0.276605
4.184	-0.0751215	0.276605
4.185	0.0101167	0.276605
4.186	0.14962	0.276605
4.187	0.138002	0.276605
4.188	-0.115647	0.276605
4.189	-0.213252	0.276605
4.19	-0.0544034	0.276605
4.191	0.128777	0.276605
4.192	0.155876	0.276605
4.193	0.0686105	0.276605
4.194	-0.106385	0.276605
4.195	-0.227479	0.276605
4.196	-0.00433212	0.276605
4.197	0.202592	0.276605
4.198	0.13778	0.276605
4.199	-0.0640216	0.276605
4.2	-0.184333	0.276605
4.201	-0.0454698	0.276605
4.202	0.0993582	0.276605
4.203	0.139859	0.276605
4.204	-0.0476094	0.276605
4.205	-0.159982	0.276605
4.206	-0.0518767	0.276605
4.207	0.148515	0.276605
4.208	0.161702	0.276605
4.209	-0.0046835	0.276605
4.21	-0.128209	0.276605
4.211	-0.158749	0.276605
4.212	-0.0998231	0.276605
4.213	0.16086	0.276605
4.214	0.193723	0.276605
4.215	0.0235045	0.276605
4.216	-0.0812286	0.276605
4.217	-0.108418	0.276605
4.218	-0.0667514	0.276605
4.219	0.0619346	0.276605
4.22	0.15012	0.276605
4.221	-0.0344428	0.276605
4.222	-0.132859	0.276605
4.223	-0.0547896	0.276605
4.224	0.0573739	0.276605
4.225	0.129135	0.276605
4.226	0.0747338	0.276605
4.227	-0.0648519	0.276605
4.228	-0.173818	0.276605
4.229	-0.0680053	0.276605
4.23	0.124651	0.276605
4.231	0.127702	0.276605
4.232	0.0187248	0.276605
4.233	-0.108718	0.276605
4.234	-0.107329	0.276605
4.235	0.0110187	0.276605
4.236	0.152045	0.276605
4.237	0.100009	0.276605
4.238	-0.143641	0.276605
4.239	-0.147948	0.276605
4.24	0.012327	0.276605
4.241	0.104932	0.276605
4.242	0.112061	0.276605
4.243	0.0474953	0.276605
4.244	-0.0805592	0.276605
4.245	-0.185133	0.276605
4.246	0.00137242	0.276605
4.247	0.105617	0.276605
4.248	0.0556925	0.276605
4.249	-0.015385	0.276605
4.25	-0.0496101	0.276605
4.251	-0.019298	0.276605
4.252	0.0483732	0.276605
4.253	0.139164	0.276605
4.254	-0.0100085	0.276605
4.255	-0.171906	0.276605
4.256	-0.141885	0.276605
4.257	-0.00352792	0.276605
4.258	0.102162	0.276605
4.259	0.180743	0.276605
4.26	0.115185	0.276605
4.261	-0.0998183	0.276605
4.262	-0.188865	0.276605
4.263	-0.0174821	0.276605
4.264	0.0290059	0.276605
4.265	0.0463344	0.276605
4.266	0.0708792	0.276605
4.267	-0.0598332	0.276605
4.268	-0.0738936	0.276605
4.269	0.051546	0.276605
4.27	0.110613	0.276605
4.271	-0.0572987	0.276605
4.272	-0.106869	0.276605
4.273	0.012601	0.276605
4.274	0.124389	0.276605
4.275	0.0980032	0.276605
4.276	-0.0329149	0.276605
4.277	-0.12691	0.276605
4.278	-0.176139	0.276605
4.279	-0.0256658	0.276605
4.28	0.0865444	0.276605
4.281	0.142527	0.276605
4.282	0.16788	0.276605
4.283	0.061063	0.276605
4.284	-0.204785	0.276605
4.285	-0.202883	0.276605
4.286	0.12366	0.276605
4.287	0.131744	0.276605
4.288	-0.0824715	0.276605
4.289	-0.167439	0.276605
4.29	0.0225775	0.276605
4.291	0.121676	0.276605
4.292	0.11896	0.276605
4.293	0.0430212	0.276605
4.294	-0.0684091	0.276605
4.295	-0.176341	0.276605
4.296	0.00156925	0.276605
4.297	0.110466	0.276605
4.298	0.0380453	0.276605
4.299	-0.0517149	0.276605
4.3	-0.0801142	0.276605
4.301	-0.0207378	0.276605
4.302	0.0786209	0.276605
4.303	0.146328	0.276605
4.304	0.00451367	0.276605
4.305	-0.115251	0.276605
4.306	-0.142977	0.276605
4.307	-0.0183674	0.276605
4.308	0.164009	0.276605
4.309	0.0879856	0.276605
4.31	-0.0659573	0.276605
4.311	-0.100897	0.276605
4.312	-0.0304653	0.276605
4.313	0.144969	0.276605
4.314	0.037349	0.276605
4.315	-0.090648	0.276605
4.316	-0.0622112	0.276605
4.317	-0.022695	0.276605
4.318	-0.00107483	0.276605
4.319	0.100665	0.276605
4.32	0.168125	0.276605
4.321	-0.0798395	0.276605
4.322	-0.187842	0.276605
4.323	-0.0788596	0.276605
4.324	0.0757008	0.276605
4.325	0.137754	0.276605
4.326	0.0830665	0.276605
4.327	-0.0587058	0.276605
4.328	-0.172964	0.276605
4.329	-0.04355	0.276605
4.33	0.106377	0.276605
4.331	0.0907837	0.276605
4.332	0.0204414	0.276605
4.333	-0.0458397	0.276605
4.334	-0.0720996	0.276605
4.335	-0.0111786	0.276605
4.336	0.0685104	0.276605
4.337	0.0436262	0.276605
4.338	-0.108824	0.276605
4.339	-0.101249	0.276605
4.34	0.0841022	0.276605
4.341	0.129334	0.276605
4.342	0.0728771	0.276605
4.343	-0.00995332	0.276605
4.344	-0.13449	0.276605
4.345	-0.186081	0.276605
4.346	0.0496305	0.276605
4.347	0.162066	0.276605
4.348	0.0766012	0.276605
4.349	-0.0157944	0.276605
4.35	-0.0897684	0.276605
4.351	-0.0844228	0.276605
4.352	0.0262791	0.276605
4.353	0.151768	0.276605
4.354	0.0364392	0.276605
4.355	-0.161174	0.276605
4.356	-0.115224	0.276605
4.357	0.065852	0.276605
4.358	0.143273	0.276605
4.359	0.108238	0.276605
4.36	-0.0457604	0.276605
4.361	-0.211023	0.276605
4.362	-0.1333	0.276605
4.363	0.135843	0.276605
4.364	0.155264	0.276605
4.365	0.102577	0.276605
4.366	-0.0212082	0.276605
4.367	-0.163839	0.276605
4.368	-0.141793	0.276605
4.369	0.0143131	0.276605
4.37	0.138723	0.276605
4.371	0.0780231	0.276605
4.372	0.0135514	0.276605
4.373	-0.0388566	0.276605
4.374	-0.00667814	0.276605
4.375	-0.0219283	0.276605
4.376	-0.0590036	0.276605
4.377	-0.0544009	0.276605
4.378	-0.0299741	0.276605
4.379	0.0996838	0.276605
4.38	0.172445	0.27623
4.381	0.0355565	0.276605
4.382	-0.167573	0.276605
4.383	-0.130312	0.276605
4.384	-0.00587182	0.276605
4.385	0.0931264	0.276605
4.386	0.156217	0.276605
4.387	0.0650651	0.276605
4.388	-0.182221	0.276605
4.389	-0.198609	0.276605
4.39	0.00854764	0.276605
4.391	0.176089	0.276605
4.392	0.160971	0.276605
4.393	0.012256	0.27623
4.394	-0.12402	0.276605
4.395	-0.165827	0.276605
4.396	0.0089171	0.276605
4.397	0.1125	0.276605
4.398	0.0842061	0.276605
4.399	-0.0241043	0.276605
4.4	-0.101265	0.276605
4.401	-0.0768524	0.276605
4.402	0.0458489	0.276605
4.403	0.193224	0.276605
4.404	0.0138958	0.276605
4.405	-0.144406	0.276605
4.406	-0.0820193	0.276605
4.407	0.0315894	0.276605
4.408	0.0585877	0.276605
4.409	0.0604125	0.276605
4.41	0.00359363	0.276605
4.411	-0.10974	0.276605
4.412	-0.0861168	0.276605
4.413	0.0868904	0.276605
4.414	0.120532	0.276605
4.415	0.039626	0.276605
4.416	-0.0709555	0.276605
4.417	-0.133789	0.276605
4.418	-0.0266233	0.276605
4.419	0.122773	0.276605
4.42	0.130318	0.27623
4.421	-0.0938795	0.276605
4.422	-0.135814	0.276605
4.423	-0.0265917	0.276605
4.424	0.0792062	0.276605
4.425	0.117392	0.27623
4.426	0.0664046	0.27623
4.427	-0.0794735	0.27623
4.428	-0.187243	0.27623
4.429	-0.0414362	0.27623
4.43	0.13991	0.276605
4.431	0.120324	0.27623
4.432	-0.0159639	0.27623
4.433	-0.0860094	0.27623
4.434	-0.0258417	0.27623
4.435	0.0119585	0.27623
4.436	0.0626791	0.276605
4.437	0.021726	0.27623
4.438	-0.130244	0.27623
4.439	-0.10228	0.27623
4.44	0.0709653	0.27623
4.441	0.183169	0.27623
4.442	0.115816	0.276605
4.443	-0.0354372	0.27623
4.444	-0.183039	0.276605
4.445	-0.18718	0.276605
4.446	0.0203408	0.276605
4.447	0.164457	0.27623
4.448	0.121712	0.27623
4.449	-0.0162628	0.276605
4.45	-0.0353032	0.27623
4.451	-0.0436231	0.27623
4.452	-0.0471709	0.27623
4.453	0.0875235	0.276605
4.454	-0.0381707	0.27623
4.455	-0.111184	0.27623
4.456	0.0201547	0.27623
4.457	0.0608578	0.27623
4.458	0.0781763	0.27623
4.459	0.0932565	0.27623
4.46	-0.038905	0.27623
4.461	-0.161158	0.27623
4.462	-0.12148	0.276605
4.463	0.0915849	0.27623
4.464	0.135263	0.27623
4.465	0.0481291	0.27623
4.466	-0.0693874	0.276605
4.467	-0.100554	0.27623
4.468	-0.0245607	0.27623
4.469	0.0982651	0.27623
4.47	0.1571	0.27623
4.471	-0.0933581	0.27623
4.472	-0.167771	0.27623
4.473	-0.0340042	0.27623
4.474	0.0985916	0.27623
4.475	0.12836	0.27623
4.476	0.0190198	0.27623
4.477	-0.0687111	0.27623
4.478	-0.158978	0.27623
4.479	-0.0223027	0.27623
4.48	0.126594	0.27623
4.481	0.0692021	0.27623
4.482	0.0140786	0.27623
4.483	-0.057272	0.27623
4.484	-0.0651379	0.27623
4.485	0.0160324	0.27623
4.486	0.108584	0.276605
4.487	0.0516777	0.276605
4.488	-0.169585	0.276605
4.489	-0.153742	0.27623
4.49	0.0520728	0.27623
4.491	0.154693	0.27623
4.492	0.130216	0.27623
4.493	0.0221861	0.27623
4.494	-0.137332	0.27623
4.495	-0.151463	0.27623
4.496	0.0666711	0.27623
4.497	0.0763981	0.27623
4.498	0.0237842	0.27623
4.499	-0.0379074	0.27623
4.5	-0.097723	0.27623
4.501	-0.0301179	0.27623
4.502	0.108065	0.27623
4.503	0.201266	0.27623
4.504	-0.0291475	0.27623
4.505	-0.191234	0.27623
4.506	-0.120537	0.27623
4.507	0.0418484	0.27623
4.508	0.114449	0.27623
4.509	0.0991156	0.27623
4.51	-0.012522	0.27623
4.511	-0.126139	0.27623
4.512	-0.0838259	0.27623
4.513	0.0900253	0.27623
4.514	0.109026	0.27623
4.515	0.0279939	0.27623
4.516	-0.0852991	0.27623
4.517	-0.154183	0.27623
4.518	-0.0234126	0.27623
4.519	0.124395	0.27623
4.52	0.177508	0.27623
4.521	-0.00170911	0.27623
4.522	-0.106359	0.27623
4.523	-0.0707287	0.27623
4.524	-0.0260474	0.27623
4.525	0.0204853	0.27623
4.526	0.0238968	0.27623
4.527	-0.0430468	0.27623
4.528	-0.0727458	0.27623
4.529	0.0954827	0.27623
4.53	0.163527	0.27623
4.531	0.0750374	0.276605
4.532	-0.0635393	0.27623
4.533	-0.145631	0.27623
4.534	-0.16235	0.27623
4.535	-0.050706	0.27623
4.536	0.165827	0.27623
4.537	0.141516	0.276605
4.538	-0.0115384	0.27623
4.539	-0.0543175	0.27623
4.54	0.00203771	0.27623
4.541	0.00548412	0.27623
4.542	0.0179061	0.27623
4.543	0.00128152	0.27623
4.544	-0.112598	0.27623
4.545	-0.0987558	0.27623
4.546	0.114088	0.27623
4.547	0.105904	0.27623
4.548	0.0349625	0.27623
4.549	-0.0271598	0.27623
4.55	-0.100377	0.27623
4.551	-0.0569554	0.27623
4.552	0.0963687	0.27623
4.553	0.157723	0.276605
4.554	-0.0633655	0.27623
4.555	-0.19582	0.27623
4.556	-0.108489	0.27623
4.557	0.0920053	0.27623
4.558	0.165567	0.276605
4.559	0.118869	0.276605
4.56	0.00907395	0.27623
4.561	-0.172716	0.27623
4.562	-0.14092	0.276605
4.563	0.0545952	0.27623
4.564	0.0830316	0.276605
4.565	0.0135527	0.276605
4.566	-0.0526674	0.276605
4.567	-0.0320131	0.276605
4.568	0.0541807	0.276605
4.569	0.104628	0.276605
4.57	0.0530224	0.276605
4.571	-0.08709	0.276605
4.572	-0.131642	0.276605
4.573	-0.0447972	0.276605
4.574	0.0382815	0.276605
4.575	0.0969976	0.276605
4.576	0.0750137	0.276605
4.577	-0.0348406	0.276605
4.578	-0.153447	0.276605
4.579	0.00637508	0.276605
4.58	0.137465	0.276605
4.581	0.053878	0.276605
4.582	-0.0263568	0.276605
4.583	-0.0893131	0.276605
4.584	-0.0936209	0.276605
4.585	-0.00118321	0.276605
4.586	0.129729	0.276605
4.587	0.102852	0.276605
4.588	-0.080366	0.276605
4.589	-0.105417	0.276605
4.59	0.00080867	0.276605
4.591	0.0666699	0.276605
4.592	0.05301	0.276605
4.593	-0.0203565	0.276605
4.594	-0.0928315	0.276605
4.595	-0.0680945	0.276605
4.596	0.090112	0.276605
4.597	0.152292	0.276605
4.598	0.0554932	0.276605
4.599	-0.118811	0.276605
4.6	-0.198893	0.276605
4.601	-0.0595356	0.276605
4.602	0.0966738	0.276605
4.603	0.203465	0.276605
4.604	0.0555194	0.276605
4.605	-0.124993	0.27623
4.606	-0.0858002	0.276605
4.607	0.0542361	0.276605
4.608	0.0717257	0.276605
4.609	-0.000226425	0.276605
4.61	-0.043547	0.276605
4.611	-0.142754	0.276605
4.612	-0.11948	0.276605
4.613	0.0876883	0.276605
4.614	0.216201	0.276605
4.615	0.204031	0.276605
4.616	0.00910007	0.276605
4.617	-0.222011	0.276605
4.618	-0.259954	0.276605
4.619	-0.0444885	0.276605
4.62	0.242696	0.276605
4.621	0.0663009	0.276605
4.622	-0.0815708	0.276605
4.623	-0.00961915	0.276605
4.624	0.0780154	0.276605
4.625	0.0719805	0.276605
4.626	0.0109905	0.276605
4.627	-0.0996715	0.276605
4.628	-0.21283	0.276605
4.629	-0.00602912	0.276605
4.63	0.157826	0.276605
4.631	0.138412	0.276605
4.632	0.0285555	0.276605
4.633	-0.117733	0.276605
4.634	-0.0993272	0.276605
4.635	0.0300918	0.276605
4.636	0.136229	0.276605
4.637	0.0239277	0.276605
4.638	-0.150937	0.276605
4.639	-0.113424	0.276605
4.64	0.0343677	0.276605
4.641	0.132167	0.276605
4.642	0.134608	0.276605
4.643	-0.0140276	0.276605
4.644	-0.109426	0.276605
4.645	-0.125063	0.276605
4.646	0.0390746	0.276605
4.647	0.0847446	0.276605
4.648	0.003674	0.276605
4.649	-0.0890169	0.276605
4.65	0.00254932	0.276605
4.651	0.0410236	0.276605
4.652	0.0698643	0.276605
4.653	0.118999	0.276605
4.654	-0.0805702	0.276605
4.655	-0.137835	0.276605
4.656	-0.0909194	0.276605
4.657	0.0103441	0.276605
4.658	0.10558	0.276605
4.659	0.128079	0.276605
4.66	0.0337454	0.276605
4.661	-0.140237	0.276605
4.662	-0.116802	0.276605
4.663	0.0807928	0.276605
4.664	0.102722	0.276605
4.665	0.00617153	0.276605
4.666	-0.0726381	0.276605
4.667	-0.0969678	0.276605
4.668	-0.0107755	0.276605
4.669	0.142087	0.276605
4.67	0.149013	0.276605
4.671	-0.103789	0.276605
4.672	-0.167474	0.276605
4.673	-0.0471936	0.276605
4.674	0.0702809	0.276605
4.675	0.115194	0.276605
4.676	0.0782235	0.276605
4.677	-0.0433099	0.276605
4.678	-0.180379	0.276605
4.679	-0.0218865	0.276605
4.68	0.124838	0.276605
4.681	0.0645191	0.276605
4.682	-0.0270561	0.276605
4.683	-0.0770629	0.276605
4.684	-0.0467823	0.276605
4.685	0.0331707	0.276605
4.686	0.144201	0.276605
4.687	0.0361498	0.276605
4.688	-0.160214	0.276605
4.689	-0.11994	0.276605
4.69	0.0398637	0.276605
4.691	0.116538	0.276605
4.692	0.102008	0.276605
4.693	0.0242727	0.276605
4.694	-0.108446	0.276605
4.695	-0.168481	0.276605
4.696	0.0366358	0.276605
4.697	0.113565	0.276605
4.698	0.0436492	0.276605
4.699	-0.0320777	0.276605
4.7	-0.0797248	0.276605
4.701	0.0346755	0.276605
4.702	0.108247	0.276605
4.703	0.0610736	0.276605
4.704	-0.113354	0.276605
4.705	-0.173714	0.276605
