Time	EMG	Muscle Force
0	0	0.280341
0.001	0	0.280341
0.002	0	0.280341
0.003	0	0.279967
0.004	0	0.279967
0.005	0	0.279967
0.006	0	0.279967
0.007	0	0.279594
0.008	0	0.279594
0.009	0	0.279594
0.01	0	0.27922
0.011	0	0.27922
0.012	0	0.27922
0.013	0	0.278847
0.014	0	0.278847
0.015	0	0.278473
0.016	0	0.278473
0.017	0	0.278473
0.018	0	0.278473
0.019	0	0.278099
0.02	0	0.278099
0.021	0	0.278099
0.022	0	0.277726
0.023	0	0.277726
0.024	0	0.277726
0.025	0	0.277726
0.026	0	0.277726
0.027	0	0.277352
0.028	0	0.277352
0.029	0	0.277352
0.03	0	0.277352
0.031	0	0.277352
0.032	0	0.277352
0.033	0	0.277352
0.034	0	0.276978
0.035	0	0.276978
0.036	0	0.276978
0.037	0	0.276978
0.038	0	0.276978
0.039	0	0.276978
0.04	0	0.276978
0.041	0	0.276978
0.042	0	0.276978
0.043	0	0.276978
0.044	0	0.276978
0.045	0	0.276978
0.046	0	0.276978
0.047	0	0.276978
0.048	0	0.276605
0.049	0	0.276978
0.05	0	0.276978
0.051	-0.0609842	0.276978
0.052	-0.00891985	0.276978
0.053	0.0923461	0.276605
0.054	0.0485066	0.276978
0.055	-0.110337	0.276605
0.056	-0.0810398	0.276978
0.057	0.0288143	0.276605
0.058	0.0736197	0.276978
0.059	0.0862091	0.276978
0.06	0.0121397	0.276978
0.061	-0.0863503	0.276605
0.062	-0.141423	0.276978
0.063	0.0597831	0.276978
0.064	0.133603	0.276978
0.065	0.0406839	0.276605
0.066	-0.0615383	0.276605
0.067	-0.129081	0.276978
0.068	-0.0642728	0.276605
0.069	0.0814465	0.276978
0.07	0.214927	0.276978
0.071	0.0451057	0.276978
0.072	-0.167726	0.276978
0.073	-0.16508	0.276978
0.074	-0.00809469	0.276605
0.075	0.122715	0.276978
0.076	0.150016	0.276978
0.077	0.0118504	0.276978
0.078	-0.15361	0.276978
0.079	-0.131727	0.276978
0.08	0.0906093	0.276978
0.081	0.12318	0.276978
0.082	0.023679	0.276978
0.083	-0.0626634	0.276978
0.084	-0.0912276	0.276978
0.085	-0.0265743	0.276978
0.086	0.0915883	0.276978
0.087	0.141299	0.276978
0.088	-0.0646766	0.276978
0.089	-0.15018	0.276978
0.09	-0.0490401	0.276978
0.091	0.0731513	0.276978
0.092	0.105773	0.276978
0.093	0.0599243	0.276978
0.094	-0.0436653	0.276978
0.095	-0.160044	0.276978
0.096	-0.0319999	0.276978
0.097	0.122217	0.276978
0.098	0.0810773	0.276978
0.099	-0.018941	0.276978
0.1	-0.0815804	0.276978
0.101	-0.0710544	0.276978
0.102	0.0161295	0.276978
0.103	0.134095	0.276978
0.104	0.0935543	0.276978
0.105	-0.124473	0.276978
0.106	-0.147863	0.276978
0.107	-0.00217131	0.276978
0.108	0.0984631	0.276978
0.109	0.115586	0.276978
0.11	0.0338451	0.276978
0.111	-0.101932	0.276978
0.112	-0.165622	0.276978
0.113	0.0405186	0.276978
0.114	0.133841	0.276978
0.115	0.0605885	0.276978
0.116	-0.0389967	0.276978
0.117	-0.0941679	0.276978
0.118	-0.0609146	0.276978
0.119	0.0418244	0.276978
0.12	0.158235	0.276978
0.121	0.016451	0.276978
0.122	-0.130475	0.276978
0.123	-0.0915713	0.276978
0.124	0.0205244	0.276978
0.125	0.0842359	0.276978
0.126	0.0907249	0.276978
0.127	-0.000134145	0.276978
0.128	-0.124671	0.276978
0.129	-0.0914535	0.276978
0.13	0.0972802	0.276978
0.131	0.0982116	0.276605
0.132	0.0148816	0.276605
0.133	-0.0623	0.276605
0.134	-0.105591	0.276978
0.135	-0.0454667	0.276978
0.136	0.0984508	0.276605
0.137	0.172927	0.276605
0.138	-0.0380417	0.276605
0.139	-0.12631	0.276978
0.14	-0.0604472	0.276978
0.141	0.0207484	0.276978
0.142	0.0597336	0.276978
0.143	0.063909	0.276605
0.144	-0.0328162	0.276978
0.145	-0.128115	0.276978
0.146	0.0269799	0.276978
0.147	0.15662	0.276605
0.148	0.0430566	0.276978
0.149	-0.112853	0.276978
0.15	-0.100342	0.276605
0.151	-0.0202179	0.276978
0.152	0.0404129	0.276978
0.153	0.130279	0.276978
0.154	0.0788581	0.276978
0.155	-0.11394	0.276978
0.156	-0.112059	0.276978
0.157	-0.0095818	0.276978
0.158	0.0572237	0.276978
0.159	0.108808	0.276978
0.16	0.0410869	0.276605
0.161	-0.0872182	0.276605
0.162	-0.162195	0.276605
0.163	0.029337	0.276605
0.164	0.129463	0.276978
0.165	0.0680589	0.276605
0.166	-0.0314377	0.276605
0.167	-0.0933114	0.276605
0.168	-0.0547016	0.276605
0.169	0.0593724	0.276605
0.17	0.140741	0.276605
0.171	-0.0272971	0.276605
0.172	-0.151141	0.276605
0.173	-0.0777431	0.276605
0.174	0.0828581	0.276605
0.175	0.121732	0.276605
0.176	0.0530163	0.276605
0.177	-0.0491005	0.276605
0.178	-0.12231	0.276605
0.179	-0.0657508	0.276605
0.18	0.10305	0.276605
0.181	0.0832981	0.276605
0.182	-0.00307104	0.276605
0.183	-0.0687949	0.276605
0.184	-0.0692522	0.276605
0.185	-0.00346793	0.276605
0.186	0.0963265	0.276605
0.187	0.137513	0.276605
0.188	-0.0767201	0.276605
0.189	-0.160212	0.276605
0.19	-0.0418681	0.276605
0.191	0.0685694	0.276605
0.192	0.0992569	0.276605
0.193	0.0500317	0.276605
0.194	-0.0399211	0.276605
0.195	-0.137218	0.276605
0.196	0.00218788	0.276605
0.197	0.135682	0.276605
0.198	0.0408669	0.276605
0.199	-0.0777375	0.276605
0.2	-0.102302	0.276605
0.201	-0.0293356	0.276605
0.202	0.0497992	0.276605
0.203	0.156502	0.276605
0.204	0.0830897	0.276605
0.205	-0.146934	0.276605
0.206	-0.147932	0.276605
0.207	0.017704	0.276605
0.208	0.0902594	0.276605
0.209	0.0830927	0.276605
0.21	0.00787246	0.276605
0.211	-0.0749923	0.276605
0.212	-0.129304	0.276605
0.213	0.0518111	0.276605
0.214	0.0957038	0.276605
0.215	0.0473787	0.276605
0.216	0.0105981	0.276605
0.217	-0.0800029	0.276605
0.218	-0.0930075	0.276605
0.219	0.0200764	0.276605
0.22	0.142123	0.276605
0.221	-0.00425634	0.276605
0.222	-0.100101	0.276605
0.223	-0.0509134	0.276605
0.224	0.0674789	0.276605
0.225	0.0868067	0.276605
0.226	0.0341877	0.276605
0.227	-0.0411681	0.276605
0.228	-0.167383	0.276605
0.229	-0.0844637	0.276978
0.23	0.113068	0.276605
0.231	0.17081	0.276605
0.232	0.0790918	0.276605
0.233	-0.0464303	0.276605
0.234	-0.111572	0.276605
0.235	-0.186097	0.276605
0.236	-0.0132028	0.276605
0.237	0.212584	0.276605
0.238	0.105161	0.276605
0.239	-0.035686	0.276605
0.24	-0.118694	0.276605
0.241	-0.0729469	0.276605
0.242	0.0458437	0.276978
0.243	0.115699	0.276978
0.244	0.0191154	0.276605
0.245	-0.135432	0.276605
0.246	-0.0310964	0.276978
0.247	0.0506735	0.276978
0.248	0.065455	0.276978
0.249	0.0524061	0.276978
0.25	-0.0499817	0.276978
0.251	-0.108527	0.276978
0.252	-0.0457925	0.276978
0.253	0.103511	0.276978
0.254	0.129973	0.276978
0.255	-0.0424097	0.276978
0.256	-0.100814	0.276978
0.257	-0.0233226	0.276978
0.258	-0.0374662	0.276978
0.259	0.0435555	0.276605
0.26	0.137954	0.276978
0.261	0.000510222	0.276978
0.262	-0.136763	0.276605
0.263	-0.00811332	0.276978
0.264	0.0121035	0.276978
0.265	0.0463901	0.276978
0.266	0.0690179	0.276978
0.267	-0.0964708	0.276605
0.268	-0.0744481	0.276978
0.269	0.066033	0.276978
0.27	0.15446	0.276978
0.271	-0.0310139	0.276978
0.272	-0.148675	0.276978
0.273	-0.0696318	0.276978
0.274	0.0467221	0.276605
0.275	0.126224	0.276978
0.276	0.06788	0.276978
0.277	-0.0550956	0.276978
0.278	-0.139167	0.276978
0.279	-0.0444923	0.276978
0.28	0.124237	0.276978
0.281	0.0868699	0.276978
0.282	-0.0176523	0.276978
0.283	-0.0803747	0.276978
0.284	-0.101323	0.276978
0.285	-0.0125043	0.276978
0.286	0.136762	0.276978
0.287	0.156221	0.276978
0.288	-0.0716648	0.276978
0.289	-0.160473	0.276978
0.29	-0.0665221	0.276978
0.291	0.0801565	0.276978
0.292	0.101549	0.276978
0.293	0.0174124	0.276978
0.294	-0.0802429	0.276978
0.295	-0.0924647	0.276978
0.296	0.0498235	0.276978
0.297	0.111502	0.276978
0.298	0.0525534	0.276978
0.299	-0.0515075	0.276978
0.3	-0.122056	0.276978
0.301	-0.0942526	0.276978
0.302	0.0409972	0.276978
0.303	0.197338	0.276978
0.304	0.100815	0.276978
0.305	-0.143785	0.276978
0.306	-0.130601	0.276978
0.307	0.0132388	0.276978
0.308	0.0567043	0.276978
0.309	0.09995	0.276605
0.31	0.0254357	0.276978
0.311	-0.172866	0.276978
0.312	-0.148291	0.276978
0.313	0.154645	0.276605
0.314	0.26017	0.276978
0.315	-0.0878362	0.276605
0.316	-0.134914	0.276978
0.317	0.0153556	0.276978
0.318	-0.0522746	0.276978
0.319	-0.0543096	0.276605
0.32	0.151214	0.276978
0.321	0.0827919	0.276978
0.322	-0.119479	0.276978
0.323	-0.102386	0.276605
0.324	0.0325406	0.276605
0.325	0.115637	0.276605
0.326	0.0639179	0.276605
0.327	-0.021747	0.276605
0.328	-0.116525	0.276605
0.329	-0.134152	0.276605
0.33	0.064261	0.276605
0.331	0.16462	0.276605
0.332	0.062121	0.276605
0.333	-0.0756388	0.276605
0.334	-0.123251	0.276605
0.335	-0.046993	0.276605
0.336	0.110197	0.276605
0.337	0.147417	0.276605
0.338	-0.0858049	0.276605
0.339	-0.117713	0.276605
0.34	-0.00294725	0.276605
0.341	0.0638681	0.276605
0.342	0.0490978	0.276605
0.343	-0.0053925	0.276605
0.344	-0.022702	0.276605
0.345	-0.136627	0.276605
0.346	0.0050399	0.276605
0.347	0.16879	0.276605
0.348	0.117398	0.276605
0.349	-0.0918874	0.276605
0.35	-0.14351	0.276605
0.351	-0.0689213	0.276605
0.352	0.058294	0.276605
0.353	0.160895	0.276605
0.354	0.0357543	0.276605
0.355	-0.166692	0.276605
0.356	-0.124292	0.276605
0.357	0.0957904	0.276605
0.358	0.119177	0.276605
0.359	0.100498	0.276605
0.36	-0.00467404	0.276605
0.361	-0.130144	0.276605
0.362	-0.178282	0.276605
0.363	0.0207017	0.276605
0.364	0.110387	0.276978
0.365	0.077278	0.276605
0.366	0.000664803	0.276605
0.367	-0.0504115	0.276605
0.368	0.00118549	0.276605
0.369	0.0276597	0.276605
0.37	0.0853149	0.276978
0.371	-0.0500108	0.276605
0.372	-0.1349	0.276605
0.373	-0.0811129	0.276978
0.374	0.0604288	0.276605
0.375	0.139112	0.276978
0.376	0.0718931	0.276605
0.377	-0.0380473	0.276605
0.378	-0.135742	0.276605
0.379	-0.0171411	0.276605
0.38	0.123852	0.276605
0.381	0.0618007	0.276605
0.382	-0.102487	0.276605
0.383	-0.155624	0.276605
0.384	0.0272611	0.276605
0.385	0.0945314	0.276605
0.386	0.176071	0.276605
0.387	0.0921465	0.276605
0.388	-0.126062	0.276605
0.389	-0.269767	0.276605
0.39	-0.129517	0.276605
0.391	0.106633	0.276605
0.392	0.184633	0.276605
0.393	0.228482	0.276605
0.394	0.0284027	0.276605
0.395	-0.2304	0.276605
0.396	-0.0530162	0.276605
0.397	0.019298	0.276978
0.398	-0.135519	0.276605
0.399	-0.10836	0.276605
0.4	0.0767613	0.276605
0.401	0.212382	0.276605
0.402	0.162778	0.276605
0.403	0.086993	0.276605
0.404	-0.0868687	0.276978
0.405	-0.28819	0.276605
0.406	-0.137358	0.276605
0.407	-0.01362	0.276605
0.408	0.11475	0.276605
0.409	0.20902	0.276605
0.41	0.116196	0.276605
0.411	-0.127407	0.276605
0.412	-0.175243	0.276605
0.413	0.0355925	0.276605
0.414	0.0932063	0.276605
0.415	0.0106685	0.276605
0.416	0.0207883	0.276605
0.417	-0.0924001	0.276605
0.418	-0.0898509	0.276605
0.419	0.0411588	0.276605
0.42	0.150786	0.276605
0.421	-0.0297384	0.276605
0.422	-0.053348	0.276605
0.423	0.00929355	0.276605
0.424	-0.0227983	0.276605
0.425	-0.0092808	0.276605
0.426	0.0611636	0.276605
0.427	0.0107071	0.276605
0.428	-0.0808334	0.276605
0.429	0.0279173	0.276605
0.43	0.0550013	0.276605
0.431	0.00301643	0.276605
0.432	-0.0848951	0.276605
0.433	-0.0844743	0.276605
0.434	-0.0063026	0.276605
0.435	0.0899336	0.276605
0.436	0.18374	0.276605
0.437	0.119646	0.276605
0.438	-0.199879	0.276605
0.439	-0.184306	0.276605
0.44	0.0128591	0.276605
0.441	0.0672436	0.276605
0.442	0.0215569	0.276605
0.443	-0.0039014	0.276605
0.444	-0.00568097	0.276605
0.445	-0.0603795	0.276605
0.446	0.0965122	0.276605
0.447	0.129683	0.276605
0.448	0.0819485	0.276605
0.449	-0.0705287	0.276605
0.45	-0.202954	0.276605
0.451	-0.146634	0.276605
0.452	-0.0720602	0.276605
0.453	0.132089	0.276605
0.454	0.28005	0.276605
0.455	-0.0213038	0.276605
0.456	0.089486	0.276605
0.457	-0.124243	0.276605
0.458	-0.109198	0.276605
0.459	-0.0605825	0.276605
0.46	-0.00752906	0.276605
0.461	0.114786	0.276605
0.462	-0.0222308	0.276605
0.463	-0.124083	0.276605
0.464	0.135264	0.276605
0.465	0.0935702	0.276605
0.466	-0.0432254	0.276605
0.467	0.0138771	0.276605
0.468	-0.0660431	0.276605
0.469	-0.122361	0.276605
0.47	-0.00282655	0.276605
0.471	0.174531	0.276605
0.472	0.0368303	0.276605
0.473	-0.0468337	0.276605
0.474	-0.0362829	0.276605
0.475	-0.0815288	0.276605
0.476	-0.0321433	0.276605
0.477	0.153507	0.276605
0.478	0.0795799	0.276605
0.479	-0.199064	0.276978
0.48	-0.090199	0.276605
0.481	0.176929	0.276605
0.482	0.14172	0.276605
0.483	-0.0436852	0.276978
0.484	-0.157015	0.276605
0.485	-0.183085	0.276605
0.486	0.00465703	0.276605
0.487	0.402858	0.276978
0.488	0.175917	0.276978
0.489	-0.323311	0.276978
0.49	-0.238856	0.276605
0.491	-0.00284386	0.276605
0.492	0.0859504	0.276605
0.493	0.207323	0.276978
0.494	0.132852	0.276978
0.495	-0.08417	0.276978
0.496	-0.265897	0.276605
0.497	-0.0499285	0.276605
0.498	0.198072	0.276978
0.499	0.0288753	0.276605
0.5	-0.0254202	0.276978
0.501	0.0189303	0.276978
0.502	-0.0379886	0.276978
0.503	-0.0325183	0.276978
0.504	0.0624862	0.276605
0.505	-0.0298215	0.276978
0.506	-0.137541	0.276978
0.507	-0.00555244	0.276605
0.508	0.144246	0.276978
0.509	0.176425	0.276978
0.51	0.0932255	0.276978
0.511	-0.163186	0.276605
0.512	-0.53107	0.276978
0.513	-0.00664002	0.276978
0.514	0.642331	0.276978
0.515	0.237289	0.276978
0.516	-0.346477	0.276978
0.517	-0.305759	0.276978
0.518	-0.0680956	0.276978
0.519	0.10644	0.276978
0.52	0.141011	0.276978
0.521	0.271551	0.276978
0.522	-0.0676801	0.276978
0.523	-0.216415	0.276978
0.524	-0.0541167	0.276978
0.525	0.125414	0.276978
0.526	0.00533313	0.276978
0.527	-0.0476849	0.276978
0.528	-0.141961	0.276978
0.529	-0.174205	0.276978
0.53	0.136869	0.276978
0.531	0.44619	0.276978
0.532	0.108712	0.276978
0.533	-0.183217	0.276978
0.534	-0.153556	0.276978
0.535	-0.262344	0.276978
0.536	-0.14056	0.276978
0.537	0.247451	0.276978
0.538	0.274145	0.276978
0.539	-0.0138948	0.276978
0.54	-0.117568	0.276978
0.541	-0.102388	0.276978
0.542	0.115306	0.276978
0.543	0.142814	0.276978
0.544	-0.0775813	0.276978
0.545	-0.250398	0.276978
0.546	-0.162663	0.276978
0.547	0.206184	0.276978
0.548	0.273012	0.276978
0.549	-0.00416296	0.276978
0.55	-0.0667834	0.276978
0.551	-0.160315	0.276978
0.552	-0.109855	0.276978
0.553	0.152153	0.276978
0.554	0.229663	0.276978
0.555	-0.160769	0.276978
0.556	-0.163361	0.276978
0.557	0.0740638	0.276978
0.558	-0.0129057	0.276978
0.559	0.0254815	0.276978
0.56	0.0206681	0.276978
0.561	0.0480505	0.276978
0.562	0.13425	0.276978
0.563	-0.159865	0.276978
0.564	-0.139904	0.276978
0.565	0.145569	0.276978
0.566	0.0911018	0.276978
0.567	-0.178415	0.276978
0.568	-0.223498	0.276978
0.569	0.128519	0.276978
0.57	0.447549	0.276978
0.571	0.147065	0.276978
0.572	-0.398	0.276978
0.573	-0.295799	0.276978
0.574	0.0134163	0.276978
0.575	0.18039	0.276978
0.576	0.265318	0.276978
0.577	-0.0387196	0.276978
0.578	-0.270646	0.276978
0.579	-0.0592447	0.276978
0.58	0.175638	0.276978
0.581	0.156102	0.276978
0.582	0.0185941	0.276978
0.583	-0.0985816	0.276978
0.584	-0.305005	0.276978
0.585	-0.0329104	0.276978
0.586	0.131659	0.276978
0.587	0.225994	0.276978
0.588	0.269904	0.276978
0.589	-0.153762	0.276978
0.59	-0.326879	0.276978
0.591	-0.143334	0.276978
0.592	0.0545718	0.276978
0.593	0.175643	0.276978
0.594	0.116633	0.276978
0.595	-0.0534697	0.276978
0.596	0.0864868	0.276978
0.597	0.0158753	0.276978
0.598	-0.125503	0.276978
0.599	-0.0965306	0.276978
0.6	-0.0952957	0.276978
0.601	0.0264646	0.276978
0.602	0.164776	0.276978
0.603	0.248728	0.276978
0.604	-0.0576085	0.276978
0.605	-0.40777	0.276978
0.606	-0.110358	0.276978
0.607	0.204303	0.276978
0.608	0.172459	0.276978
0.609	0.143833	0.276978
0.61	0.244214	0.276978
0.611	-0.119791	0.276978
0.612	-0.723074	0.276978
0.613	-0.364178	0.276978
0.614	0.500907	0.276978
0.615	0.473648	0.276978
0.616	0.226226	0.276978
0.617	-0.118987	0.276978
0.618	-0.343545	0.276978
0.619	-0.195803	0.276978
0.62	-0.0572311	0.276978
0.621	0.232834	0.276978
0.622	0.185991	0.276978
0.623	-0.127331	0.276978
0.624	0.028662	0.276978
0.625	0.0421427	0.276978
0.626	-0.172591	0.276978
0.627	-0.0417503	0.276978
0.628	0.178329	0.276978
0.629	-0.108758	0.276978
0.63	-0.0209985	0.276978
0.631	0.047589	0.276978
0.632	0.195453	0.276978
0.633	-0.00932602	0.276978
0.634	-0.149054	0.276978
0.635	-0.158055	0.276978
0.636	0.00975693	0.276978
0.637	0.207654	0.276978
0.638	0.184012	0.276978
0.639	-0.164475	0.276978
0.64	-0.357013	0.276978
0.641	0.0305198	0.276978
0.642	0.151672	0.276978
0.643	0.226717	0.276978
0.644	0.171553	0.276978
0.645	-0.152224	0.276978
0.646	-0.225771	0.276978
0.647	0.0342655	0.276978
0.648	0.00816778	0.276978
0.649	-0.0989817	0.276978
0.65	-0.0472898	0.276978
0.651	0.150124	0.276978
0.652	0.0955444	0.276978
0.653	-0.0521663	0.276978
0.654	0.128804	0.276605
0.655	0.0582853	0.276978
0.656	-0.278268	0.276978
0.657	-0.157626	0.276978
0.658	0.105033	0.276978
0.659	0.157302	0.276978
0.66	0.102319	0.276605
0.661	-0.00552536	0.276605
0.662	-0.14699	0.276605
0.663	-0.136566	0.276605
0.664	0.0563966	0.276605
0.665	-0.0121175	0.276978
0.666	0.118997	0.276605
0.667	0.114176	0.276978
0.668	-0.123638	0.276605
0.669	-0.0125093	0.276605
0.67	0.157684	0.276605
0.671	-0.0448809	0.276605
0.672	-0.166856	0.276978
0.673	-0.132067	0.276978
0.674	-0.00974306	0.276978
0.675	0.137854	0.276978
0.676	0.105511	0.276978
0.677	0.115038	0.276978
0.678	-0.00643903	0.276978
0.679	-0.0976643	0.276605
0.68	0.00888246	0.276978
0.681	-0.0855748	0.276978
0.682	-0.167917	0.276978
0.683	-0.0566229	0.276978
0.684	0.104791	0.276978
0.685	0.239155	0.276978
0.686	0.194283	0.276978
0.687	-0.0120096	0.276978
0.688	-0.161607	0.276978
0.689	-0.309397	0.276978
0.69	-0.141801	0.276978
0.691	0.113591	0.276978
0.692	0.271574	0.276978
0.693	0.145517	0.276978
0.694	-0.0196024	0.276978
0.695	-0.140325	0.276978
0.696	-0.181918	0.276605
0.697	0.0845404	0.276978
0.698	0.155214	0.276605
0.699	0.0768696	0.276605
0.7	-0.0787573	0.276605
0.701	-0.230054	0.276605
0.702	-0.226619	0.276605
0.703	0.190642	0.276605
0.704	0.34315	0.276605
0.705	0.0358547	0.276605
0.706	-0.150089	0.276605
0.707	-0.0762112	0.276605
0.708	0.14136	0.276605
0.709	0.0798042	0.276605
0.71	-0.133535	0.276605
0.711	-0.328756	0.276605
0.712	-0.120292	0.276605
0.713	0.166792	0.276605
0.714	0.321266	0.276605
0.715	0.19222	0.276605
0.716	-0.065632	0.276605
0.717	-0.130183	0.276605
0.718	-0.0996536	0.276605
0.719	-0.144875	0.276605
0.72	-0.0357134	0.276605
0.721	0.0978834	0.276605
0.722	0.0838721	0.276978
0.723	0.0696838	0.276605
0.724	0.047696	0.276605
0.725	-0.075977	0.276605
0.726	0.0174935	0.276605
0.727	-0.0633867	0.276605
0.728	-0.175246	0.276605
0.729	0.0300023	0.276605
0.73	0.152993	0.276605
0.731	0.088619	0.276605
0.732	0.089921	0.276605
0.733	-0.0664067	0.276605
0.734	-0.177581	0.276605
0.735	-0.145583	0.276605
0.736	0.116042	0.276605
0.737	0.198725	0.276605
0.738	0.0447869	0.276605
0.739	-0.15872	0.276605
0.74	-0.114733	0.276605
0.741	-0.0569286	0.276605
0.742	0.160857	0.276605
0.743	0.210905	0.276978
0.744	-0.000254765	0.276605
0.745	-0.193379	0.276978
0.746	-0.165529	0.276605
0.747	0.0120792	0.276978
0.748	0.164024	0.276605
0.749	0.177811	0.276605
0.75	-0.0696196	0.276978
0.751	-0.309389	0.276978
0.752	-0.144016	0.276978
0.753	0.388615	0.276978
0.754	0.277232	0.276978
0.755	-0.109606	0.276978
0.756	-0.190058	0.276978
0.757	-0.307488	0.276978
0.758	-0.102794	0.276978
0.759	0.365691	0.276978
0.76	0.281149	0.276978
0.761	0.0232777	0.276978
0.762	-0.195662	0.276605
0.763	-0.386096	0.276978
0.764	0.122101	0.276978
0.765	0.177244	0.276978
0.766	0.14398	0.276978
0.767	-0.0747973	0.276605
0.768	-0.283925	0.276605
0.769	0.169271	0.276605
0.77	0.101896	0.276605
0.771	0.128784	0.276978
0.772	-0.00755364	0.276978
0.773	-0.321831	0.276978
0.774	-0.16035	0.276605
0.775	0.168412	0.276978
0.776	0.232218	0.276605
0.777	0.108829	0.276605
0.778	-0.0183643	0.276978
0.779	-0.286681	0.276978
0.78	-0.153587	0.276605
0.781	0.233113	0.276978
0.782	0.231152	0.276978
0.783	-0.135181	0.276978
0.784	-0.232476	0.276978
0.785	-0.15149	0.276978
0.786	0.287722	0.276605
0.787	0.334352	0.276605
0.788	-0.0354254	0.276605
0.789	-0.281048	0.276605
0.79	-0.23461	0.276605
0.791	-0.0620653	0.276605
0.792	0.194719	0.276605
0.793	0.350594	0.276605
0.794	0.145059	0.276605
0.795	-0.321243	0.276605
0.796	-0.5151	0.276605
0.797	0.0135897	0.276605
0.798	0.46986	0.276605
0.799	0.186247	0.276605
0.8	0.181204	0.276605
0.801	-0.161418	0.276605
0.802	-0.427965	0.276605
0.803	-0.109665	0.276605
0.804	0.180478	0.276605
0.805	-0.0396963	0.276605
0.806	0.104122	0.276605
0.807	0.0525817	0.276605
0.808	0.12013	0.276605
0.809	0.133536	0.276605
0.81	-0.0654423	0.276605
0.811	-0.141945	0.276605
0.812	-0.300976	0.276605
0.813	-0.171211	0.276605
0.814	0.309621	0.276605
0.815	0.238743	0.276605
0.816	0.161117	0.276605
0.817	-0.128592	0.276605
0.818	-0.244908	0.276605
0.819	-0.0823938	0.276605
0.82	0.0444584	0.276605
0.821	0.105351	0.276605
0.822	0.189135	0.276605
0.823	-0.0613109	0.276978
0.824	-0.170176	0.276978
0.825	0.00223103	0.276605
0.826	-0.0149564	0.276605
0.827	0.0142866	0.276978
0.828	0.0744824	0.276605
0.829	-0.0462923	0.276605
0.83	0.00439316	0.276978
0.831	0.019666	0.276978
0.832	0.0722317	0.276978
0.833	0.138209	0.276978
0.834	-0.124181	0.276978
0.835	-0.291402	0.276978
0.836	0.00807877	0.276978
0.837	0.176146	0.276978
0.838	0.119038	0.276978
0.839	-0.117712	0.276978
0.84	-0.016248	0.276978
0.841	0.0499997	0.276978
0.842	-0.00605447	0.276978
0.843	0.0855328	0.276978
0.844	0.0833682	0.276605
0.845	-0.159142	0.276978
0.846	-0.226971	0.276978
0.847	-0.0131907	0.276605
0.848	0.192415	0.276978
0.849	0.255911	0.276978
0.85	-0.193921	0.276978
0.851	-0.199287	0.276978
0.852	0.0705476	0.276978
0.853	0.179102	0.276978
0.854	0.178571	0.276978
0.855	-0.111941	0.276978
0.856	-0.310745	0.276978
0.857	-0.170307	0.276978
0.858	0.232648	0.276978
0.859	0.318829	0.276978
0.86	-0.0777752	0.276978
0.861	-0.094758	0.276978
0.862	-0.17274	0.276978
0.863	-0.0410305	0.276978
0.864	0.128644	0.276978
0.865	0.167796	0.276605
0.866	0.0385812	0.276978
0.867	-0.275124	0.276978
0.868	-0.166378	0.276978
0.869	0.326236	0.276605
0.87	0.258426	0.276978
0.871	-0.085982	0.276978
0.872	-0.351787	0.276978
0.873	-0.162231	0.276978
0.874	0.00264124	0.276978
0.875	0.202739	0.276978
0.876	0.293118	0.276978
0.877	0.129495	0.276605
0.878	-0.157166	0.276605
0.879	-0.370027	0.276978
0.88	-0.131129	0.276605
0.881	0.277971	0.276605
0.882	0.256055	0.276605
0.883	-0.0357266	0.276978
0.884	-0.266355	0.276605
0.885	-0.154193	0.276978
0.886	0.0462892	0.276978
0.887	0.29199	0.276978
0.888	0.171553	0.276605
0.889	-0.102932	0.276978
0.89	-0.422644	0.276978
0.891	0.0344666	0.276978
0.892	0.374244	0.276978
0.893	0.18065	0.276978
0.894	-0.248583	0.276605
0.895	-0.495648	0.276978
0.896	0.133843	0.276605
0.897	0.31762	0.276978
0.898	0.166833	0.276978
0.899	-0.0233557	0.276978
0.9	-0.126395	0.276978
0.901	-0.136423	0.276978
0.902	-0.09711	0.276978
0.903	0.0430454	0.276978
0.904	0.190217	0.276978
0.905	0.100991	0.276978
0.906	0.0091768	0.276978
0.907	-0.200041	0.276978
0.908	-0.143248	0.276978
0.909	0.0485929	0.276978
0.91	0.148586	0.276978
0.911	0.0873378	0.276978
0.912	-0.168879	0.276605
0.913	-0.103562	0.276978
0.914	0.115322	0.276978
0.915	0.237115	0.276978
0.916	0.12698	0.276978
0.917	-0.183518	0.276978
0.918	-0.377713	0.276978
0.919	-0.0353826	0.276978
0.92	0.296234	0.276978
0.921	-0.00403951	0.276978
0.922	-0.151093	0.276978
0.923	-0.0219538	0.276978
0.924	0.19716	0.276978
0.925	0.181577	0.276978
0.926	0.113802	0.276978
0.927	-0.0186257	0.276978
0.928	-0.28987	0.276605
0.929	-0.467372	0.276605
0.93	-0.0396236	0.276605
0.931	0.27752	0.276605
0.932	0.25846	0.276605
0.933	0.179772	0.276605
0.934	0.025386	0.276605
0.935	-0.155537	0.276978
0.936	-0.0860172	0.276605
0.937	0.0893883	0.276978
0.938	-0.165268	0.276605
0.939	-0.0532819	0.276978
0.94	0.124212	0.276605
0.941	-0.449126	0.276978
0.942	0.244588	0.276605
0.943	0.342057	0.276605
0.944	0.248003	0.276605
0.945	-0.209086	0.276605
0.946	-0.333098	0.276978
0.947	0.161066	0.276605
0.948	0.0717902	0.276978
0.949	-0.266583	0.276978
0.95	-0.0488356	0.276978
0.951	0.20275	0.276978
0.952	0.134619	0.276605
0.953	-0.0674537	0.276978
0.954	0.205492	0.276978
0.955	-0.243324	0.276978
0.956	-0.240728	0.276978
0.957	0.142364	0.276978
0.958	0.0929192	0.276978
0.959	0.160802	0.276978
0.96	-0.00538734	0.276605
0.961	-0.186673	0.276978
0.962	-0.14376	0.276978
0.963	0.063915	0.276978
0.964	0.274246	0.276978
0.965	-0.0757287	0.276978
0.966	-0.215919	0.276978
0.967	0.0351134	0.276978
0.968	0.0809176	0.276978
0.969	0.0396214	0.276978
0.97	0.0573654	0.276978
0.971	0.0980104	0.276978
0.972	-0.0721413	0.276978
0.973	-0.173068	0.276978
0.974	-0.108731	0.276978
0.975	0.0581719	0.276978
0.976	-0.0665228	0.276978
0.977	0.0987406	0.276978
0.978	0.327846	0.276605
0.979	-0.146184	0.276978
0.98	-0.0458155	0.276978
0.981	0.189981	0.276978
0.982	-0.152813	0.276978
0.983	-0.360918	0.276978
0.984	-0.0387681	0.276978
0.985	0.152294	0.276978
0.986	0.213373	0.276978
0.987	0.145439	0.276978
0.988	0.0236888	0.276978
0.989	-0.183827	0.276978
0.99	-0.151119	0.276978
0.991	-0.06043	0.276978
0.992	0.0923369	0.276978
0.993	0.207725	0.276978
0.994	0.00961891	0.276978
0.995	-0.14598	0.276978
0.996	-0.159552	0.276978
0.997	0.0590842	0.276978
0.998	0.213493	0.276978
0.999	-0.0830564	0.276978
1	-0.0999309	0.276978
1.001	0.011767	0.276978
1.002	0.0693726	0.276978
1.003	0.119905	0.276978
1.004	0.0285844	0.276978
1.005	-0.225096	0.276978
1.006	0.0500004	0.276978
1.007	0.0186343	0.276978
1.008	-0.244716	0.276978
1.009	0.0781582	0.276978
1.01	0.215727	0.276978
1.011	0.233546	0.276978
1.012	-0.0327554	0.276978
1.013	-0.241845	0.276978
1.014	-0.228223	0.276978
1.015	-0.0672408	0.276978
1.016	0.296204	0.276978
1.017	0.171446	0.276978
1.018	-0.176027	0.276978
1.019	-0.0929357	0.276978
1.02	0.175804	0.276978
1.021	0.132569	0.276978
1.022	-0.188795	0.276978
1.023	-0.209772	0.276978
1.024	-0.0040037	0.276978
1.025	0.112541	0.276978
1.026	0.169453	0.276978
1.027	0.0524356	0.276978
1.028	-0.0699965	0.276978
1.029	-0.0972033	0.276978
1.03	-0.0981706	0.276978
1.031	0.00569883	0.276978
1.032	0.0645792	0.276978
1.033	0.090474	0.276978
1.034	0.107385	0.276978
1.035	-0.0854575	0.276978
1.036	0.0600177	0.276978
1.037	-0.0280972	0.276978
1.038	-0.380894	0.276978
1.039	-0.203032	0.276978
1.04	0.387575	0.276978
1.041	0.379357	0.276978
1.042	0.0938951	0.276978
1.043	-0.0791785	0.276978
1.044	-0.292955	0.276978
1.045	-0.288946	0.276978
1.046	-0.144444	0.276978
1.047	0.281139	0.276978
1.048	0.433777	0.276978
1.049	-0.0392198	0.276978
1.05	-0.237816	0.276978
1.051	-0.103846	0.276978
1.052	-0.058107	0.276978
1.053	0.128088	0.276978
1.054	0.185763	0.276978
1.055	-0.0292883	0.276978
1.056	-0.115712	0.276978
1.057	-0.140978	0.276978
1.058	-0.0661971	0.276978
1.059	0.125768	0.276978
1.06	0.180329	0.276978
1.061	0.0380241	0.276978
1.062	-0.15557	0.276978
1.063	-0.0948357	0.276978
1.064	0.0764805	0.276978
1.065	0.0861772	0.276978
1.066	-0.00670162	0.276978
1.067	-0.112907	0.276978
1.068	-0.00536267	0.276978
1.069	0.0277131	0.276978
1.07	0.0255503	0.276978
1.071	0.13907	0.276978
1.072	-0.125028	0.276978
1.073	-0.135517	0.276978
1.074	0.0153741	0.276978
1.075	0.0563254	0.276978
1.076	0.176678	0.276978
1.077	0.194995	0.276978
1.078	-0.0570933	0.276978
1.079	-0.402149	0.276978
1.08	-0.302932	0.276978
1.081	0.0362875	0.276978
1.082	0.368102	0.276978
1.083	0.387745	0.276978
1.084	0.0346661	0.276978
1.085	-0.129065	0.276978
1.086	-0.345774	0.276978
1.087	-0.137453	0.276978
1.088	0.072377	0.276978
1.089	-0.0919577	0.276978
1.09	0.127694	0.276978
1.091	0.285013	0.276978
1.092	0.139002	0.276978
1.093	0.0551141	0.276978
1.094	-0.195536	0.276978
1.095	-0.534624	0.276978
1.096	-0.235781	0.276978
1.097	0.359591	0.276978
1.098	0.484324	0.276978
1.099	0.261254	0.276978
1.1	-0.194422	0.276978
1.101	-0.457824	0.276978
1.102	-0.0213219	0.276978
1.103	0.148151	0.276978
1.104	0.0401479	0.276978
1.105	0.112292	0.276978
1.106	-0.234702	0.276978
1.107	-0.291148	0.276978
1.108	0.132957	0.276978
1.109	0.435356	0.276605
1.11	0.326637	0.276978
1.111	0.0808455	0.276605
1.112	-0.416158	0.276978
1.113	-0.601253	0.276605
1.114	-0.28198	0.276978
1.115	0.523203	0.276978
1.116	0.530571	0.276605
1.117	0.0539178	0.276978
1.118	-0.375444	0.276978
1.119	-0.114287	0.276978
1.12	0.0961071	0.276978
1.121	0.104738	0.276978
1.122	-0.0757375	0.276978
1.123	-0.15947	0.276978
1.124	0.00554099	0.276978
1.125	0.23135	0.276978
1.126	0.18995	0.276978
1.127	-0.103699	0.276978
1.128	-0.249592	0.276978
1.129	-0.318895	0.276978
1.13	-0.0235986	0.276978
1.131	0.435277	0.276605
1.132	0.367739	0.276978
1.133	-0.113416	0.276978
1.134	-0.0783094	0.276978
1.135	-0.182875	0.276605
1.136	-0.294978	0.276978
1.137	-0.0147532	0.276978
1.138	0.257257	0.276978
1.139	0.159606	0.276978
1.14	-0.0522474	0.276605
1.141	-0.125944	0.276605
1.142	0.0565689	0.276605
1.143	0.144275	0.276605
1.144	0.0343508	0.276978
1.145	-0.23457	0.276605
1.146	-0.146468	0.276978
1.147	0.102736	0.276978
1.148	0.105548	0.276605
1.149	0.00464124	0.276978
1.15	-0.0686565	0.276978
1.151	0.0539897	0.276978
1.152	0.145062	0.276978
1.153	0.114202	0.276978
1.154	-0.0604729	0.276605
1.155	-0.366575	0.276605
1.156	-0.328016	0.276978
1.157	0.190122	0.276605
1.158	0.308431	0.276605
1.159	0.254525	0.276978
1.16	0.145746	0.276978
1.161	0.0156878	0.276978
1.162	-0.304658	0.276978
1.163	-0.742385	0.276978
1.164	0.0230068	0.276978
1.165	0.696806	0.276978
1.166	0.255782	0.276978
1.167	-0.127211	0.276978
1.168	-0.265494	0.276978
1.169	-0.218391	0.276978
1.17	0.330625	0.276978
1.171	0.327973	0.276978
1.172	-0.272169	0.276978
1.173	-0.354928	0.276978
1.174	-0.15503	0.276978
1.175	0.0436413	0.276978
1.176	0.495157	0.276978
1.177	0.268798	0.276978
1.178	-0.090854	0.276978
1.179	-0.33165	0.276978
1.18	-0.200208	0.276978
1.181	0.0450902	0.276978
1.182	-0.00393836	0.276978
1.183	0.293168	0.276978
1.184	-0.0564893	0.276978
1.185	-0.165133	0.276978
1.186	-0.000454783	0.276978
1.187	0.139434	0.276978
1.188	0.033649	0.276978
1.189	0.106186	0.276978
1.19	-0.104546	0.276978
1.191	-0.246742	0.276978
1.192	0.163404	0.276978
1.193	-0.00807028	0.276978
1.194	-0.110758	0.276978
1.195	0.128568	0.276978
1.196	0.0879033	0.276978
1.197	-0.139669	0.276978
1.198	-0.133335	0.276978
1.199	0.11279	0.276978
1.2	0.132795	0.276978
1.201	0.167223	0.276978
1.202	0.057288	0.276978
1.203	-0.235136	0.276978
1.204	-0.0771049	0.276978
1.205	-0.189467	0.276978
1.206	-0.260478	0.276978
1.207	0.132872	0.276978
1.208	0.430627	0.276978
1.209	0.310263	0.276978
1.21	0.213806	0.276978
1.211	-0.412818	0.276978
1.212	-0.562451	0.276978
1.213	-0.125908	0.276978
1.214	0.363979	0.276978
1.215	0.286974	0.276978
1.216	-0.0640139	0.276978
1.217	-0.134145	0.276978
1.218	-0.0171454	0.276978
1.219	0.0559554	0.276978
1.22	0.174858	0.276978
1.221	0.0134459	0.276978
1.222	-0.268248	0.276978
1.223	-0.146546	0.276978
1.224	0.0487782	0.276978
1.225	0.244786	0.276978
1.226	0.0751393	0.276978
1.227	-0.138437	0.276978
1.228	-0.169407	0.276978
1.229	-0.0799583	0.276978
1.23	0.32135	0.276978
1.231	0.214094	0.276978
1.232	0.103443	0.276978
1.233	-0.231932	0.276978
1.234	-0.591618	0.276978
1.235	-0.107416	0.276978
1.236	0.322722	0.276978
1.237	0.250858	0.276978
1.238	0.123651	0.276978
1.239	0.089756	0.276978
1.24	0.077053	0.276978
1.241	-0.0841803	0.276978
1.242	-0.426531	0.276978
1.243	-0.295457	0.276978
1.244	0.342505	0.276978
1.245	0.281718	0.276978
1.246	-0.202805	0.276978
1.247	-0.158085	0.276978
1.248	0.0175664	0.276978
1.249	0.471741	0.276978
1.25	0.2389	0.276978
1.251	-0.320921	0.276978
1.252	-0.357199	0.276978
1.253	-0.275475	0.276978
1.254	0.273495	0.276978
1.255	0.268979	0.276978
1.256	-0.171519	0.276978
1.257	-0.0117791	0.276978
1.258	0.170341	0.276978
1.259	0.0118501	0.276978
1.26	0.073901	0.276978
1.261	-0.0370947	0.276978
1.262	-0.173811	0.276978
1.263	-0.144121	0.276978
1.264	-0.112201	0.276978
1.265	0.37256	0.276978
1.266	-0.0711997	0.276978
1.267	-0.246469	0.276978
1.268	0.273494	0.276978
1.269	0.209175	0.276978
1.27	0.11872	0.276978
1.271	-0.229346	0.276978
1.272	-0.274816	0.276978
1.273	-0.302336	0.276978
1.274	0.175203	0.276978
1.275	0.305934	0.276978
1.276	0.124279	0.276978
1.277	0.0244203	0.276978
1.278	-0.0290079	0.276978
1.279	-0.210315	0.276978
1.28	-0.0911306	0.276978
1.281	0.137267	0.276978
1.282	0.0134535	0.276978
1.283	-0.00222059	0.276978
1.284	0.0847595	0.276978
1.285	-0.241324	0.276978
1.286	-0.0658538	0.276978
1.287	0.168971	0.276978
1.288	0.253848	0.276978
1.289	0.128011	0.276978
1.29	-0.201726	0.276978
1.291	-0.363469	0.276978
1.292	-0.0428139	0.276978
1.293	0.0272012	0.276978
1.294	0.243578	0.276978
1.295	0.193177	0.276978
1.296	-0.0195157	0.276978
1.297	-0.03162	0.276978
1.298	-0.135849	0.276978
1.299	-0.0343911	0.276978
1.3	-0.0906777	0.276978
1.301	-0.0630706	0.276978
1.302	-0.0214931	0.276978
1.303	0.140956	0.276978
1.304	0.2737	0.276978
1.305	-0.0321878	0.276978
1.306	-0.155133	0.276978
1.307	-0.129225	0.276978
1.308	0.160968	0.276978
1.309	0.103656	0.276978
1.31	-0.14167	0.276978
1.311	-0.170257	0.276978
1.312	-0.155512	0.276978
1.313	0.101229	0.276978
1.314	0.344054	0.276978
1.315	0.0715834	0.276978
1.316	-0.0903949	0.276978
1.317	-0.159564	0.276978
1.318	-0.0706347	0.276978
1.319	0.0875775	0.276978
1.32	0.234572	0.276978
1.321	-0.108334	0.276978
1.322	-0.117396	0.276978
1.323	-0.0748006	0.276978
1.324	-0.185843	0.276978
1.325	-0.0263446	0.276978
1.326	0.344314	0.276978
1.327	0.0980377	0.276978
1.328	-0.0326644	0.276978
1.329	0.0153618	0.276978
1.33	0.0493333	0.276978
1.331	-0.0286488	0.276978
1.332	-0.00418503	0.276978
1.333	-0.202439	0.276978
1.334	-0.417815	0.276978
1.335	-0.0922535	0.276978
1.336	0.370681	0.276978
1.337	0.589129	0.276978
1.338	0.0489119	0.276978
1.339	-0.102343	0.276978
1.34	-0.142993	0.276978
1.341	-0.190941	0.276978
1.342	-0.382846	0.276978
1.343	-0.094449	0.276978
1.344	0.377112	0.276978
1.345	0.288058	0.276978
1.346	-0.0350728	0.276978
1.347	-0.175204	0.276978
1.348	0.0690389	0.276978
1.349	0.151349	0.276978
1.35	-0.163556	0.276978
1.351	-0.139483	0.276978
1.352	0.0270269	0.276978
1.353	0.119584	0.276978
1.354	-0.110629	0.276978
1.355	-0.0819647	0.276978
1.356	0.15481	0.276978
1.357	0.0623563	0.276978
1.358	-0.0274685	0.276978
1.359	0.0541146	0.276978
1.36	0.0355741	0.276978
1.361	-0.0353589	0.276978
1.362	-0.182434	0.276978
1.363	-0.118652	0.276978
1.364	-0.0578191	0.276978
1.365	0.140522	0.276978
1.366	0.254776	0.276978
1.367	0.233882	0.276978
1.368	-0.0463757	0.276978
1.369	-0.320652	0.276978
1.37	-0.237664	0.276978
1.371	-0.074022	0.276978
1.372	0.183219	0.276978
1.373	0.176666	0.276978
1.374	0.0632041	0.276978
1.375	-0.0564048	0.276978
1.376	0.00962758	0.276978
1.377	0.101694	0.276978
1.378	-0.0934651	0.276978
1.379	-0.193988	0.276978
1.38	-0.0644947	0.276978
1.381	0.0818241	0.276978
1.382	0.164332	0.276978
1.383	-0.00226747	0.276978
1.384	-0.0660538	0.276978
1.385	0.0115989	0.276978
1.386	-0.0234324	0.276978
1.387	0.0409751	0.276978
1.388	0.0134588	0.276978
1.389	-0.00592079	0.276978
1.39	0.0263979	0.276978
1.391	0.0585187	0.276978
1.392	-0.134822	0.276978
1.393	-0.399225	0.276978
1.394	0.329481	0.276978
1.395	0.24052	0.276978
1.396	-0.107488	0.276978
1.397	-0.0279166	0.276978
1.398	0.148466	0.276978
1.399	0.125885	0.276978
1.4	-0.244762	0.276978
1.401	-0.38643	0.276978
1.402	-0.050149	0.276978
1.403	0.288148	0.276978
1.404	0.342676	0.276978
1.405	-0.0857343	0.276978
1.406	-0.0692689	0.276978
1.407	0.0272223	0.276978
1.408	-0.0213185	0.276978
1.409	-0.100703	0.276978
1.41	-0.324523	0.276978
1.411	0.252099	0.276978
1.412	0.206028	0.276978
1.413	-0.306838	0.276978
1.414	0.299464	0.276978
1.415	0.181788	0.276978
1.416	-0.234012	0.276978
1.417	-0.242584	0.276978
1.418	-0.0166628	0.276978
1.419	0.0734254	0.276978
1.42	0.359774	0.276978
1.421	0.120933	0.276978
1.422	-0.287182	0.276978
1.423	-0.451862	0.276978
1.424	0.0513811	0.276978
1.425	0.388676	0.276978
1.426	0.0874108	0.276978
1.427	0.0222174	0.276978
1.428	0.0279237	0.276978
1.429	-0.135713	0.276978
1.43	-0.223279	0.276978
1.431	-0.128036	0.276978
1.432	0.25425	0.276978
1.433	0.263251	0.276978
1.434	-0.148868	0.276978
1.435	-0.197342	0.276978
1.436	0.0718737	0.276978
1.437	0.0979124	0.276978
1.438	0.154497	0.276978
1.439	-0.151456	0.276978
1.44	-0.237833	0.276978
1.441	0.00107278	0.276978
1.442	0.182849	0.276978
1.443	0.167745	0.276978
1.444	-0.0959294	0.276978
1.445	-0.0580521	0.276978
1.446	-0.0337991	0.276978
1.447	0.034216	0.276978
1.448	-0.0137473	0.276978
1.449	-0.0730288	0.276978
1.45	-0.0219119	0.276605
1.451	0.061214	0.276605
1.452	0.0606799	0.276978
1.453	0.107675	0.276978
1.454	0.0535326	0.276978
1.455	-0.236516	0.276978
1.456	-0.194433	0.276978
1.457	0.291925	0.276978
1.458	0.159957	0.276978
1.459	-0.351247	0.276978
1.46	-0.141001	0.276978
1.461	0.321956	0.276978
1.462	0.0246389	0.276978
1.463	0.060782	0.276978
1.464	0.0778776	0.276978
1.465	-0.0711793	0.276978
1.466	-0.186857	0.276978
1.467	-0.236442	0.276978
1.468	-0.113033	0.276978
1.469	0.240306	0.276978
1.47	0.485987	0.276978
1.471	0.168447	0.276978
1.472	-0.181388	0.276978
1.473	-0.390388	0.276978
1.474	-0.286486	0.276978
1.475	-0.0829321	0.276978
1.476	0.352029	0.276978
1.477	0.0961126	0.276978
1.478	0.182741	0.276978
1.479	0.291888	0.276978
1.48	-0.108506	0.276978
1.481	-0.295517	0.276978
1.482	-0.422246	0.276978
1.483	-0.230489	0.276978
1.484	0.189411	0.276978
1.485	0.397393	0.276978
1.486	0.368121	0.276978
1.487	0.205957	0.276978
1.488	-0.0480515	0.276978
1.489	-0.392233	0.276605
1.49	-0.685039	0.276605
1.491	-0.337143	0.276978
1.492	0.592839	0.276978
1.493	0.697462	0.276978
1.494	0.0685051	0.276978
1.495	-0.262832	0.276978
1.496	-0.174742	0.276978
1.497	-0.0399865	0.276978
1.498	-0.0931109	0.276605
1.499	0.0337975	0.276978
1.5	0.0193286	0.276605
1.501	-0.155258	0.276978
1.502	-0.220602	0.276605
1.503	0.512661	0.276605
1.504	0.692651	0.276978
1.505	-0.195645	0.276605
1.506	-0.874839	0.276978
1.507	-0.367997	0.276605
1.508	0.29442	0.276605
1.509	0.421757	0.276978
1.51	0.258234	0.276605
1.511	-0.0494588	0.276978
1.512	-0.326984	0.276605
1.513	-0.0281805	0.276978
1.514	0.126856	0.276978
1.515	0.0326094	0.276605
1.516	-0.096417	0.276978
1.517	-0.0405121	0.276978
1.518	-0.00648472	0.276978
1.519	-0.0419016	0.276978
1.52	0.111476	0.276605
1.521	0.0884971	0.276605
1.522	0.0172076	0.276605
1.523	-0.066424	0.276978
1.524	0.02039	0.276978
1.525	-0.183646	0.276978
1.526	0.0613255	0.276978
1.527	0.184926	0.276978
1.528	0.000690182	0.276605
1.529	-0.330139	0.276605
1.53	-0.0243203	0.276605
1.531	0.326303	0.276605
1.532	0.0798109	0.276605
1.533	-0.061902	0.276605
1.534	-0.264877	0.276605
1.535	0.0136004	0.276978
1.536	0.227202	0.276605
1.537	0.0723154	0.276605
1.538	-0.0704062	0.276605
1.539	-0.0572571	0.276605
1.54	-0.128728	0.276605
1.541	-0.223507	0.276605
1.542	0.0726174	0.276605
1.543	0.250738	0.276605
1.544	0.328302	0.276605
1.545	0.0417434	0.276605
1.546	-0.360884	0.276605
1.547	-0.000617788	0.276605
1.548	0.0242608	0.276605
1.549	-0.374073	0.276605
1.55	-0.280669	0.276605
1.551	0.349497	0.276605
1.552	0.789375	0.276605
1.553	0.240967	0.276605
1.554	-0.486571	0.276605
1.555	-0.596564	0.276978
1.556	-0.0388605	0.276605
1.557	0.0278041	0.276978
1.558	0.162526	0.276605
1.559	0.287956	0.276605
1.56	0.145271	0.276605
1.561	0.0950005	0.276605
1.562	-0.151262	0.276605
1.563	-0.368909	0.276605
1.564	-0.244163	0.276605
1.565	0.0358669	0.276605
1.566	0.379861	0.276605
1.567	0.393964	0.276605
1.568	-0.0047348	0.276605
1.569	-0.418458	0.276605
1.57	-0.185358	0.276605
1.571	0.11046	0.276978
1.572	-0.0140781	0.276605
1.573	-0.0667208	0.276605
1.574	0.112612	0.276978
1.575	0.227278	0.276605
1.576	0.0574063	0.276605
1.577	0.0557612	0.276605
1.578	-0.0816878	0.276978
1.579	-0.321507	0.276978
1.58	-0.508093	0.276605
1.581	0.234193	0.276978
1.582	0.612443	0.276605
1.583	0.245471	0.276605
1.584	-0.250651	0.276605
1.585	-0.22412	0.276605
1.586	-0.135616	0.276978
1.587	-0.00628405	0.276605
1.588	0.30461	0.276605
1.589	-0.0755073	0.276605
1.59	-0.217461	0.276605
1.591	0.047972	0.276605
1.592	0.077881	0.276605
1.593	0.0762543	0.276605
1.594	0.0883693	0.276605
1.595	-0.0196641	0.276605
1.596	-0.187034	0.276605
1.597	-0.073634	0.276605
1.598	0.0970073	0.276605
1.599	0.10479	0.276605
1.6	-0.00925639	0.276605
1.601	-0.092867	0.276605
1.602	-0.0675386	0.276605
1.603	0.119372	0.276605
1.604	0.109611	0.276605
1.605	0.0262277	0.276605
1.606	-0.215322	0.276605
1.607	-0.143805	0.276605
1.608	0.136282	0.276605
1.609	0.201242	0.276605
1.61	-0.0809238	0.276605
1.611	0.0486234	0.276605
1.612	0.0183957	0.276605
1.613	-0.264726	0.276605
1.614	-0.133123	0.276605
1.615	0.144282	0.276605
1.616	0.288587	0.276605
1.617	0.180619	0.276605
1.618	-0.213379	0.276605
1.619	-0.260918	0.276605
1.62	0.0938153	0.276605
1.621	0.064189	0.276605
1.622	-0.102114	0.276605
1.623	-0.174001	0.276605
1.624	0.0171812	0.276605
1.625	0.401055	0.276605
1.626	0.276515	0.276605
1.627	-0.059521	0.276605
1.628	-0.343448	0.276605
1.629	-0.310258	0.276605
1.63	-0.166019	0.276605
1.631	0.0829464	0.276605
1.632	0.384481	0.276605
1.633	0.432117	0.276605
1.634	-0.0411218	0.276605
1.635	-0.297471	0.276605
1.636	-0.442043	0.276605
1.637	-0.0657382	0.276605
1.638	0.442208	0.276605
1.639	0.126677	0.276605
1.64	-0.0845498	0.276605
1.641	-0.0341426	0.276605
1.642	-0.0932263	0.276605
1.643	0.0113927	0.276605
1.644	-0.0150854	0.276605
1.645	-0.101867	0.276605
1.646	0.0200668	0.276605
1.647	0.144721	0.276605
1.648	0.153371	0.276605
1.649	0.0647562	0.276605
1.65	-0.09784	0.276605
1.651	-0.152514	0.276605
1.652	-0.276119	0.276605
1.653	-0.0578592	0.276605
1.654	0.360891	0.276605
1.655	0.179671	0.276605
1.656	-0.0893672	0.276605
1.657	-0.228084	0.276605
1.658	-0.0790122	0.276605
1.659	0.40262	0.276605
1.66	0.353038	0.276605
1.661	-0.204901	0.276605
1.662	-0.68574	0.276605
1.663	-0.417992	0.276605
1.664	0.204686	0.276605
1.665	0.668962	0.276605
1.666	0.390517	0.276605
1.667	-0.055866	0.276605
1.668	-0.270626	0.276605
1.669	-0.22393	0.276605
1.67	-0.209221	0.276605
1.671	0.129914	0.276605
1.672	0.104371	0.276605
1.673	-0.129649	0.276978
1.674	0.0432631	0.276605
1.675	0.109205	0.276605
1.676	0.077949	0.276605
1.677	0.0856106	0.276605
1.678	0.0336689	0.276978
1.679	-0.147241	0.276605
1.68	-0.162696	0.276978
1.681	0.0657229	0.276978
1.682	-0.0994176	0.276978
1.683	-0.063765	0.276978
1.684	0.119779	0.276978
1.685	0.15692	0.276978
1.686	0.0512819	0.276978
1.687	0.0305643	0.276978
1.688	0.0754833	0.276978
1.689	-0.136835	0.276978
1.69	-0.28737	0.276978
1.691	-0.118054	0.276978
1.692	0.149778	0.276978
1.693	0.192721	0.276978
1.694	0.121918	0.276978
1.695	-0.133976	0.276978
1.696	-0.159682	0.276978
1.697	0.15538	0.276978
1.698	0.297942	0.276978
1.699	0.0394976	0.276978
1.7	-0.393896	0.276978
1.701	-0.490496	0.276978
1.702	0.202209	0.276978
1.703	0.334043	0.276978
1.704	0.00596047	0.276978
1.705	0.235096	0.276978
1.706	-0.0903528	0.276978
1.707	-0.0756127	0.276978
1.708	0.00400814	0.276978
1.709	-0.0199284	0.276978
1.71	-0.25398	0.276978
1.711	-0.168284	0.276978
1.712	0.300374	0.276978
1.713	0.12953	0.276978
1.714	0.15495	0.276978
1.715	0.0105537	0.276978
1.716	-0.23257	0.276978
1.717	-0.200555	0.276978
1.718	0.026142	0.276978
1.719	0.0482558	0.276978
1.72	0.0591111	0.276978
1.721	0.337783	0.276978
1.722	0.105791	0.276978
1.723	-0.338678	0.276978
1.724	-0.384302	0.276978
1.725	0.107341	0.276978
1.726	0.380817	0.276978
1.727	0.0826446	0.276978
1.728	-0.27004	0.276978
1.729	-0.147537	0.276978
1.73	0.0238433	0.276978
1.731	0.174958	0.276978
1.732	0.219771	0.276978
1.733	0.0388541	0.276978
1.734	-0.163677	0.276978
1.735	-0.216553	0.276978
1.736	-0.161703	0.276978
1.737	0.276744	0.276978
1.738	0.133594	0.276978
1.739	-0.30173	0.276978
1.74	-0.0391084	0.276978
1.741	0.346648	0.276978
1.742	0.217985	0.276978
1.743	-0.153962	0.276978
1.744	-0.199077	0.276978
1.745	-0.129102	0.276978
1.746	-0.276401	0.276978
1.747	0.105105	0.276978
1.748	0.514227	0.276978
1.749	0.228945	0.276978
1.75	-0.238742	0.276978
1.751	-0.309584	0.276978
1.752	-0.195319	0.276978
1.753	0.228523	0.276978
1.754	0.270635	0.276978
1.755	-0.347281	0.276978
1.756	-0.0658776	0.276978
1.757	0.378386	0.276978
1.758	-0.00465466	0.276978
1.759	-0.0384021	0.276978
1.76	0.0650916	0.276978
1.761	-0.156025	0.276978
1.762	-0.349639	0.276978
1.763	-0.0468449	0.276978
1.764	0.152169	0.276978
1.765	0.297988	0.276978
1.766	0.233692	0.276978
1.767	0.0330632	0.276978
1.768	-0.101888	0.276978
1.769	-0.291576	0.276978
1.77	-0.400994	0.276978
1.771	0.0623386	0.276978
1.772	0.297656	0.276978
1.773	0.182624	0.276978
1.774	-0.015285	0.276978
1.775	-0.0445077	0.276978
1.776	0.0399872	0.276978
1.777	0.101251	0.276978
1.778	-0.0305048	0.276978
1.779	-0.196701	0.276978
1.78	-0.166293	0.276978
1.781	-0.0236497	0.276978
1.782	-0.0290443	0.276978
1.783	-0.0389237	0.276978
1.784	0.239462	0.276978
1.785	0.39905	0.276978
1.786	0.132222	0.276978
1.787	0.00438891	0.276978
1.788	-0.250371	0.276978
1.789	-0.825412	0.276978
1.79	-0.205465	0.276978
1.791	0.441328	0.276978
1.792	0.400104	0.276978
1.793	0.308754	0.276978
1.794	0.131149	0.276978
1.795	-0.176123	0.276978
1.796	-0.396764	0.276978
1.797	-0.141114	0.276978
1.798	0.0700201	0.276978
1.799	0.0291364	0.276978
1.8	0.147872	0.276978
1.801	0.0395745	0.276978
1.802	-0.171443	0.276978
1.803	0.0572237	0.276978
1.804	0.112469	0.276978
1.805	0.137964	0.276978
1.806	-0.0719739	0.276978
1.807	-0.0983657	0.276978
1.808	-0.00211369	0.276978
1.809	-0.0142058	0.276978
1.81	-0.129528	0.276978
1.811	-0.190719	0.276978
1.812	0.14775	0.276978
1.813	0.154473	0.276978
1.814	0.238266	0.276978
1.815	0.115137	0.276978
1.816	-0.0721692	0.276978
1.817	-0.142298	0.276978
1.818	-0.461129	0.276978
1.819	-0.162604	0.276978
1.82	0.316002	0.276978
1.821	0.384398	0.276978
1.822	-0.00209896	0.276978
1.823	-0.0689284	0.276978
1.824	-0.0862775	0.276978
1.825	-0.0617774	0.276978
1.826	0.000203	0.276978
1.827	-0.079571	0.276978
1.828	0.145147	0.276978
1.829	0.0110184	0.276978
1.83	-0.18098	0.276978
1.831	0.0860952	0.276978
1.832	0.068152	0.276978
1.833	0.0352667	0.276978
1.834	-0.0824454	0.276978
1.835	-0.0678201	0.276978
1.836	0.0280711	0.276978
1.837	0.184622	0.276978
1.838	0.14848	0.276978
1.839	-0.213609	0.276978
1.84	-0.264614	0.276605
1.841	-0.086364	0.276978
1.842	0.22578	0.276605
1.843	0.207255	0.276978
1.844	0.0669252	0.276978
1.845	-0.129864	0.276978
1.846	-0.265627	0.276978
1.847	0.00950719	0.276978
1.848	0.229288	0.276978
1.849	0.175746	0.276978
1.85	-0.0141518	0.276978
1.851	-0.31399	0.276978
1.852	-0.267443	0.276978
1.853	0.21642	0.276978
1.854	0.275984	0.276978
1.855	0.045447	0.276978
1.856	-0.155914	0.276978
1.857	-0.0878998	0.276978
1.858	0.0782133	0.276978
1.859	0.15363	0.276978
1.86	0.0360601	0.276978
1.861	-0.32407	0.276978
1.862	-0.365389	0.276978
1.863	0.246533	0.276978
1.864	0.506413	0.276978
1.865	0.225964	0.276978
1.866	-0.292675	0.276978
1.867	-0.464454	0.276978
1.868	-0.128878	0.276978
1.869	0.324365	0.276978
1.87	0.234462	0.276978
1.871	0.116384	0.276978
1.872	-0.0852413	0.276978
1.873	-0.247677	0.276978
1.874	-0.221326	0.276978
1.875	0.0282426	0.276978
1.876	0.185393	0.276978
1.877	0.20725	0.276978
1.878	0.180766	0.276978
1.879	-0.0422959	0.276978
1.88	-0.442316	0.276978
1.881	-0.238558	0.276978
1.882	0.333937	0.276978
1.883	0.215265	0.276978
1.884	0.0581862	0.276978
1.885	-0.140315	0.276978
1.886	-0.311735	0.276978
1.887	0.0116194	0.276978
1.888	0.288165	0.276978
1.889	0.250356	0.276978
1.89	-0.0929226	0.276978
1.891	-0.178201	0.276605
1.892	-0.299913	0.276978
1.893	0.0301308	0.276978
1.894	0.274974	0.276605
1.895	0.00234582	0.276978
1.896	-0.107336	0.276978
1.897	0.0975553	0.276978
1.898	0.18518	0.276978
1.899	-0.0153487	0.276978
1.9	-0.16738	0.276978
1.901	-0.236156	0.276978
1.902	-0.130376	0.276978
1.903	0.0983349	0.276978
1.904	0.354074	0.276978
1.905	0.187707	0.276978
1.906	-0.117602	0.276605
1.907	-0.0910422	0.276978
1.908	-0.0725267	0.276978
1.909	-0.195379	0.276978
1.91	-0.243674	0.276978
1.911	0.381978	0.276978
1.912	0.18639	0.276978
1.913	-0.134701	0.276978
1.914	0.0755235	0.276978
1.915	0.0675059	0.276978
1.916	-0.0579032	0.276978
1.917	-0.138437	0.276978
1.918	-0.130997	0.276978
1.919	-0.0755969	0.276978
1.92	0.11962	0.276978
1.921	0.311701	0.276978
1.922	0.040752	0.276978
1.923	-0.156869	0.276978
1.924	-0.106287	0.276978
1.925	-0.130422	0.276978
1.926	-0.0142321	0.276978
1.927	0.160894	0.276978
1.928	0.237858	0.276978
1.929	-0.075698	0.276978
1.93	-0.219964	0.276978
1.931	-0.0804482	0.276978
1.932	0.189032	0.276978
1.933	0.0812347	0.276978
1.934	-0.149381	0.276978
1.935	-0.260941	0.276978
1.936	0.170594	0.276978
1.937	0.300242	0.276978
1.938	0.0937795	0.276978
1.939	-0.117123	0.276978
1.94	-0.158457	0.276978
1.941	-0.0989233	0.276978
1.942	-0.211565	0.276978
1.943	0.103421	0.276978
1.944	0.460435	0.276978
1.945	-0.0572211	0.276978
1.946	-0.251371	0.276978
1.947	-0.0657006	0.276978
1.948	0.0478167	0.276978
1.949	0.15258	0.276978
1.95	0.0976094	0.276978
1.951	-0.0668836	0.276978
1.952	-0.185099	0.276978
1.953	-0.1923	0.276978
1.954	0.250401	0.276978
1.955	0.185214	0.276978
1.956	-0.106309	0.276978
1.957	-0.190465	0.276978
1.958	0.107363	0.276978
1.959	0.104782	0.276978
1.96	-0.0435991	0.276978
1.961	-0.00379814	0.276978
1.962	-0.146107	0.276978
1.963	-0.142986	0.276978
1.964	0.340188	0.276978
1.965	0.261441	0.276978
1.966	-0.0363434	0.276978
1.967	-0.371595	0.276978
1.968	-0.33467	0.276978
1.969	0.0341357	0.276605
1.97	0.180159	0.276978
1.971	0.404957	0.276978
1.972	0.182497	0.276605
1.973	-0.193258	0.276605
1.974	-0.167268	0.276605
1.975	-0.0989771	0.276978
1.976	-0.0860594	0.276605
1.977	-0.00723645	0.276978
1.978	-0.0367611	0.276978
1.979	-0.0185332	0.276605
1.98	0.283605	0.276605
1.981	0.248424	0.276605
1.982	-0.104096	0.276605
1.983	-0.181395	0.276605
1.984	-0.167839	0.276605
1.985	-0.0704787	0.276605
1.986	0.198764	0.276605
1.987	-0.0326621	0.276605
1.988	-0.0122963	0.276605
1.989	0.12108	0.276605
1.99	-0.0310256	0.276605
1.991	-0.1264	0.276605
1.992	0.0304974	0.276605
1.993	0.0901183	0.276605
1.994	0.0683866	0.276978
1.995	-0.0292866	0.276978
1.996	-0.117314	0.276978
1.997	-0.103362	0.276605
1.998	-0.0359485	0.276605
1.999	0.232433	0.276605
2	0.145725	0.276978
2.001	-0.157782	0.276978
2.002	-0.116721	0.276978
2.003	-0.0466268	0.276978
2.004	0.0878728	0.276978
2.005	0.0586952	0.276978
2.006	-0.0127139	0.276978
2.007	0.0979058	0.276605
2.008	-0.058162	0.276978
2.009	-0.12033	0.276978
2.01	0.00332453	0.276605
2.011	0.05683	0.276605
2.012	0.045911	0.276978
2.013	-0.0287814	0.276605
2.014	-0.036753	0.276978
2.015	-0.099578	0.276978
2.016	0.122459	0.276605
2.017	0.107286	0.276978
2.018	-0.076845	0.276978
2.019	-0.0652876	0.276605
2.02	0.0347354	0.276605
2.021	0.062683	0.276605
2.022	0.00772664	0.276605
2.023	-0.104958	0.276605
2.024	-0.194665	0.276978
2.025	0.0660231	0.276605
2.026	0.341973	0.276978
2.027	0.209775	0.276605
2.028	-0.316739	0.276978
2.029	-0.439295	0.276978
2.03	-0.028163	0.276978
2.031	0.343302	0.276978
2.032	0.368058	0.276978
2.033	0.0483892	0.276978
2.034	-0.113171	0.276978
2.035	-0.35295	0.276605
2.036	-0.416794	0.276978
2.037	0.181428	0.276978
2.038	0.514366	0.276978
2.039	-0.0145106	0.276978
2.04	-0.0125624	0.276978
2.041	0.0523235	0.276978
2.042	-0.193013	0.276978
2.043	-0.127162	0.276978
2.044	-0.265812	0.276978
2.045	0.340721	0.276978
2.046	0.313405	0.276978
2.047	-0.0637247	0.276978
2.048	-0.166984	0.276978
2.049	-0.0711819	0.276978
2.05	-0.293112	0.276978
2.051	0.166374	0.276978
2.052	0.36586	0.276978
2.053	0.00590629	0.276978
2.054	-0.187606	0.276978
2.055	-0.0866489	0.276978
2.056	-0.0324563	0.276978
2.057	0.125551	0.276978
2.058	0.0525061	0.276978
2.059	-0.0858908	0.276978
2.06	0.0377188	0.276978
2.061	0.0343894	0.276978
2.062	-0.393629	0.276978
2.063	0.134819	0.276978
2.064	0.372461	0.276978
2.065	0.0391174	0.276605
2.066	-0.0336465	0.276978
2.067	-0.126009	0.276605
2.068	-0.205264	0.276605
2.069	-0.106457	0.276605
2.07	0.0842247	0.276978
2.071	0.297233	0.276978
2.072	0.0452696	0.276605
2.073	-0.172285	0.276978
2.074	-0.0902786	0.276605
2.075	0.0596387	0.276978
2.076	0.0754136	0.276605
2.077	0.0278898	0.276978
2.078	-0.0503717	0.276978
2.079	-0.215651	0.276978
2.08	0.0523466	0.276605
2.081	0.335392	0.276605
2.082	-0.0430884	0.276605
2.083	-0.258899	0.276978
2.084	-0.114357	0.276605
2.085	0.254569	0.276605
2.086	0.104955	0.276605
2.087	-0.161656	0.276978
2.088	-0.0361723	0.276605
2.089	-0.0201436	0.276978
2.09	0.0840745	0.276605
2.091	0.110174	0.276605
2.092	0.0336475	0.276605
2.093	-0.204618	0.276605
2.094	-0.0163008	0.276978
2.095	0.0672139	0.276978
2.096	-0.309647	0.276605
2.097	-0.0576215	0.276605
2.098	0.480542	0.276605
2.099	0.515142	0.276605
2.1	-0.0506178	0.276605
2.101	-0.602689	0.276605
2.102	-0.386945	0.276605
2.103	-0.43332	0.276605
2.104	0.436586	0.276605
2.105	0.93754	0.276605
2.106	0.0483217	0.276605
2.107	-0.407785	0.276605
2.108	-0.187901	0.276605
2.109	-0.0743809	0.276978
2.11	0.00800816	0.276978
2.111	0.10853	0.276605
2.112	-0.363676	0.276978
2.113	-0.161043	0.276605
2.114	0.748116	0.276605
2.115	0.36475	0.276605
2.116	-0.401281	0.276605
2.117	-0.421808	0.276605
2.118	-0.0650605	0.276978
2.119	0.16028	0.276605
2.12	0.402682	0.276978
2.121	0.155421	0.276978
2.122	-0.641627	0.276978
2.123	-0.588027	0.276978
2.124	0.44284	0.276978
2.125	0.748646	0.276978
2.126	0.0576257	0.276978
2.127	-0.0352882	0.276978
2.128	-0.170392	0.276978
2.129	-0.482941	0.276978
2.13	-0.581977	0.276978
2.131	0.502808	0.276978
2.132	0.505201	0.276978
2.133	0.00825766	0.276978
2.134	0.339688	0.276978
2.135	-0.506706	0.276978
2.136	-0.535936	0.276978
2.137	0.536479	0.276978
2.138	0.310442	0.276978
2.139	-0.442429	0.276978
2.14	-0.561099	0.276978
2.141	0.627232	0.276978
2.142	0.634088	0.276978
2.143	-0.0966694	0.276978
2.144	-0.564221	0.276978
2.145	-0.591479	0.276978
2.146	0.187982	0.276978
2.147	0.607855	0.276978
2.148	0.151475	0.276978
2.149	-0.0761749	0.276978
2.15	-0.134107	0.276978
2.151	-0.269472	0.276978
2.152	0.246192	0.276978
2.153	0.0368199	0.276978
2.154	-0.29372	0.276605
2.155	-0.19479	0.276605
2.156	0.287587	0.276978
2.157	0.314225	0.276605
2.158	0.140324	0.276605
2.159	-0.177147	0.276605
2.16	-0.10219	0.276978
2.161	-0.345825	0.276978
2.162	-0.167248	0.276978
2.163	0.183481	0.276978
2.164	0.402175	0.276605
2.165	0.203884	0.276605
2.166	-0.00556901	0.276605
2.167	-0.330391	0.276605
2.168	-0.593674	0.276978
2.169	0.413916	0.276978
2.17	0.48167	0.276605
2.171	-0.17108	0.276978
2.172	-0.101688	0.276605
2.173	-0.268685	0.276978
2.174	-0.0205038	0.276978
2.175	0.213642	0.276978
2.176	0.195259	0.276978
2.177	0.096152	0.276605
2.178	-0.223009	0.276978
2.179	-0.288444	0.276978
2.18	-0.0421349	0.276978
2.181	0.404395	0.276978
2.182	0.206272	0.276978
2.183	-0.140092	0.276978
2.184	-0.186814	0.276978
2.185	-0.371341	0.276978
2.186	-0.131897	0.276978
2.187	0.482334	0.276978
2.188	0.467057	0.276978
2.189	0.0378595	0.276978
2.19	-0.369969	0.276978
2.191	-0.29368	0.276978
2.192	-0.0489846	0.276978
2.193	-0.0285808	0.276978
2.194	0.201469	0.276978
2.195	0.0713993	0.276978
2.196	0.0706817	0.276978
2.197	0.213441	0.276978
2.198	0.0117147	0.276978
2.199	-0.363343	0.276978
2.2	-0.288312	0.276605
2.201	0.128512	0.276978
2.202	0.0372908	0.276978
2.203	0.123714	0.276978
2.204	0.47245	0.276605
2.205	0.0393506	0.276605
2.206	-0.272794	0.276978
2.207	-0.398457	0.276978
2.208	-0.438214	0.276978
2.209	0.248163	0.276605
2.21	0.755926	0.276978
2.211	0.103216	0.276978
2.212	-0.410585	0.276978
2.213	-0.131691	0.276978
2.214	0.183434	0.276605
2.215	-0.103738	0.276978
2.216	-0.218593	0.276978
2.217	0.0865236	0.276978
2.218	0.236916	0.276978
2.219	-0.0917722	0.276978
2.22	-0.0407283	0.276978
2.221	0.266939	0.276978
2.222	-0.117383	0.276978
2.223	-0.458868	0.276978
2.224	0.163412	0.276605
2.225	0.495367	0.276605
2.226	-0.025082	0.276978
2.227	-0.387631	0.276978
2.228	-0.162866	0.276605
2.229	0.0104979	0.276978
2.23	0.212309	0.276978
2.231	0.257083	0.276978
2.232	-0.0155512	0.276978
2.233	-0.149126	0.276978
2.234	-0.152537	0.276978
2.235	-0.022626	0.276978
2.236	0.0826541	0.276978
2.237	0.0671742	0.276978
2.238	0.0410618	0.276978
2.239	0.0293857	0.276978
2.24	-0.137883	0.276978
2.241	-0.216078	0.276978
2.242	0.107882	0.276978
2.243	0.392145	0.276978
2.244	0.00815604	0.276978
2.245	-0.322906	0.276978
2.246	-0.135914	0.276978
2.247	0.151412	0.276978
2.248	0.190619	0.276978
2.249	0.0236524	0.276978
2.25	-0.219734	0.276978
2.251	-0.129642	0.276978
2.252	-0.0407579	0.276978
2.253	0.0410052	0.276978
2.254	0.555835	0.276978
2.255	0.176621	0.276978
2.256	-0.393151	0.276978
2.257	-0.521026	0.276978
2.258	-0.0384218	0.276978
2.259	0.177019	0.276978
2.26	0.208668	0.276978
2.261	0.274032	0.276978
2.262	0.0245311	0.276978
2.263	-0.218657	0.276978
2.264	0.0435826	0.276978
2.265	-0.103635	0.276978
2.266	-0.129156	0.276978
2.267	-0.124036	0.276978
2.268	0.139083	0.276978
2.269	0.144397	0.276978
2.27	0.0474303	0.276978
2.271	-0.0355092	0.276978
2.272	0.118272	0.276978
2.273	-0.0340921	0.276978
2.274	-0.210989	0.276978
2.275	-0.0137565	0.276978
2.276	0.117652	0.276978
2.277	0.0459844	0.276978
2.278	-0.0870178	0.276978
2.279	-0.120444	0.276978
2.28	0.0470672	0.276978
2.281	0.195507	0.276978
2.282	-0.0763087	0.276978
2.283	0.0635144	0.276978
2.284	0.0528251	0.276978
2.285	-0.256039	0.276978
2.286	-0.00848816	0.276978
2.287	0.272289	0.276978
2.288	0.0351773	0.276978
2.289	-0.271755	0.276978
2.29	-0.109918	0.276978
2.291	-0.0869148	0.276978
2.292	0.236116	0.276978
2.293	0.407194	0.276978
2.294	0.064134	0.276978
2.295	-0.319212	0.276978
2.296	-0.468261	0.276978
2.297	0.0729167	0.276978
2.298	0.294117	0.276978
2.299	0.048212	0.276978
2.3	-0.114471	0.276978
2.301	0.0746504	0.276978
2.302	0.205841	0.276978
2.303	0.198077	0.276978
2.304	-0.288585	0.276978
2.305	-0.601549	0.276978
2.306	0.0991665	0.276978
2.307	0.159875	0.276978
2.308	0.215926	0.276978
2.309	0.374971	0.276978
2.31	0.165233	0.276978
2.311	-0.182232	0.276978
2.312	-0.624448	0.276978
2.313	-0.472715	0.276978
2.314	0.402321	0.276978
2.315	0.582284	0.276605
2.316	0.117563	0.276605
2.317	-0.215186	0.276978
2.318	-0.127921	0.276978
2.319	-0.0863072	0.276978
2.32	0.0378805	0.276978
2.321	-0.0172609	0.276978
2.322	-0.176026	0.276978
2.323	0.245339	0.276978
2.324	0.252414	0.276978
2.325	-0.0445203	0.276978
2.326	-0.335829	0.276978
2.327	-0.359482	0.276978
2.328	0.526246	0.276978
2.329	0.154047	0.276978
2.33	-0.17614	0.276978
2.331	-0.0660336	0.276978
2.332	-0.0803766	0.276605
2.333	0.0604542	0.276978
2.334	0.278915	0.276978
2.335	-0.111584	0.276605
2.336	-0.316046	0.276605
2.337	0.133091	0.276605
2.338	0.224226	0.276605
2.339	-0.153841	0.276978
2.34	-0.119869	0.276605
2.341	-0.0542014	0.276978
2.342	-0.0347859	0.276978
2.343	0.321973	0.276978
2.344	0.29837	0.276978
2.345	-0.112337	0.276605
2.346	-0.402472	0.276978
2.347	-0.193059	0.276978
2.348	-0.0442791	0.276978
2.349	0.357008	0.276605
2.35	0.241041	0.276978
2.351	-0.187873	0.276978
2.352	-0.170431	0.276605
2.353	-0.0388616	0.276978
2.354	0.19682	0.276978
2.355	0.0530296	0.276978
2.356	-0.00711364	0.276978
2.357	0.0394209	0.276978
2.358	-0.187895	0.276978
2.359	-0.276707	0.276978
2.36	0.0598002	0.276978
2.361	0.375651	0.276978
2.362	0.0620856	0.276605
2.363	-0.0677223	0.276605
2.364	-0.0280929	0.276978
2.365	-0.0746955	0.276978
2.366	-0.11884	0.276978
2.367	0.0115588	0.276978
2.368	-0.00366381	0.276978
2.369	0.0140624	0.276978
2.37	0.118462	0.276978
2.371	0.204802	0.276978
2.372	-0.0238098	0.276978
2.373	-0.184512	0.276978
2.374	-0.254885	0.276978
2.375	-0.13155	0.276978
2.376	0.357657	0.276978
2.377	0.251742	0.276978
2.378	-0.178031	0.276978
2.379	-0.116531	0.276978
2.38	0.127191	0.276978
2.381	-0.15345	0.276978
2.382	-0.0929139	0.276978
2.383	0.412053	0.276978
2.384	0.00802084	0.276978
2.385	-0.461784	0.276978
2.386	-0.395628	0.276978
2.387	0.362527	0.276978
2.388	0.599933	0.276978
2.389	0.111243	0.276978
2.39	-0.21704	0.276978
2.391	-0.328195	0.276978
2.392	0.00214637	0.276978
2.393	0.00718998	0.276978
2.394	-0.210934	0.276978
2.395	-0.20133	0.276978
2.396	0.421238	0.276978
2.397	0.292401	0.276978
2.398	0.00893316	0.276978
2.399	0.0046647	0.276978
2.4	-0.0264739	0.276978
2.401	-0.203959	0.276978
2.402	-0.291048	0.276978
2.403	0.143965	0.276978
2.404	0.219191	0.276978
2.405	-0.29372	0.276978
2.406	-0.350593	0.276978
2.407	0.414818	0.276978
2.408	0.622061	0.276978
2.409	0.174496	0.276978
2.41	-0.304033	0.276978
2.411	-0.599226	0.276978
2.412	-0.182034	0.276978
2.413	0.0973421	0.276978
2.414	0.0718077	0.276978
2.415	0.290573	0.276978
2.416	0.349447	0.276978
2.417	-0.0889822	0.276978
2.418	-0.251022	0.276978
2.419	-0.0762478	0.276978
2.42	-0.110268	0.276978
2.421	-0.131432	0.276978
2.422	-0.0475631	0.276978
2.423	0.614098	0.276978
2.424	0.307604	0.276978
2.425	-0.643277	0.276978
2.426	-0.488506	0.276978
2.427	0.467865	0.276978
2.428	0.373656	0.276978
2.429	-0.341142	0.276978
2.43	-0.113426	0.276978
2.431	0.197627	0.276978
2.432	0.118402	0.276978
2.433	-0.208479	0.276978
2.434	-0.176224	0.276978
2.435	-0.0241341	0.276978
2.436	0.189995	0.276978
2.437	0.317739	0.276978
2.438	0.27203	0.276978
2.439	-0.361404	0.276978
2.44	-0.303805	0.276978
2.441	-0.233679	0.276978
2.442	-0.43393	0.276978
2.443	0.304117	0.276978
2.444	1.07552	0.276978
2.445	0.29775	0.276978
2.446	-0.586264	0.276978
2.447	-0.416933	0.276978
2.448	-0.158468	0.276978
2.449	-0.263826	0.276978
2.45	0.372983	0.276978
2.451	0.506022	0.276978
2.452	-0.347186	0.276978
2.453	-0.141878	0.276978
2.454	0.27604	0.276978
2.455	0.00259051	0.276978
2.456	-0.136239	0.276978
2.457	-0.0521381	0.276978
2.458	0.0947663	0.276605
2.459	0.180755	0.276978
2.46	0.00178564	0.276978
2.461	-0.6607	0.276978
2.462	-0.241809	0.276605
2.463	0.641339	0.276978
2.464	0.52993	0.276978
2.465	-0.0588716	0.276605
2.466	-0.213258	0.276605
2.467	-0.119764	0.276978
2.468	-0.435038	0.276605
2.469	-0.0671008	0.276978
2.47	0.233511	0.276605
2.471	0.152828	0.276978
2.472	0.135133	0.276605
2.473	-0.11446	0.276978
2.474	0.264026	0.276978
2.475	0.284894	0.276978
2.476	-0.30242	0.276978
2.477	-0.703687	0.276605
2.478	-0.184285	0.276978
2.479	0.304218	0.276978
2.48	0.399197	0.276978
2.481	0.271808	0.276978
2.482	0.00801964	0.276978
2.483	-0.124422	0.276978
2.484	-0.140176	0.276978
2.485	-0.394839	0.276978
2.486	-0.0159194	0.276978
2.487	0.39938	0.276605
2.488	0.161472	0.276978
2.489	-0.293934	0.276978
2.49	-0.214622	0.276978
2.491	0.313936	0.276978
2.492	0.257744	0.276978
2.493	0.00582361	0.276978
2.494	-0.285583	0.276605
2.495	-0.290762	0.276978
2.496	-0.101345	0.276978
2.497	0.220127	0.276978
2.498	0.329945	0.276605
2.499	0.0671851	0.276978
2.5	0.0671314	0.276605
2.501	-0.111195	0.276605
2.502	-0.260402	0.276978
2.503	-0.315158	0.276978
2.504	0.0587999	0.276978
2.505	0.363602	0.276605
2.506	0.0707713	0.276605
2.507	-0.0793286	0.276605
2.508	0.150591	0.276605
2.509	-0.0340745	0.276605
2.51	-0.13702	0.276978
2.511	0.0566326	0.276605
2.512	-0.135869	0.276605
2.513	-0.103203	0.276605
2.514	0.0140143	0.276605
2.515	0.0413899	0.276605
2.516	0.0575577	0.276605
2.517	0.128624	0.276605
2.518	0.13464	0.276978
2.519	0.120076	0.276978
2.52	-0.121663	0.276978
2.521	-0.33815	0.276605
2.522	-0.0831651	0.276978
2.523	-0.293708	0.276978
2.524	0.173733	0.276978
2.525	0.585581	0.276978
2.526	0.327631	0.276978
2.527	-0.158145	0.276605
2.528	-0.545774	0.276978
2.529	-0.227659	0.276978
2.53	0.0298828	0.276978
2.531	0.147773	0.276978
2.532	0.225793	0.276978
2.533	0.2776	0.276978
2.534	0.0142385	0.276605
2.535	-0.195194	0.276978
2.536	-0.266469	0.276605
2.537	-0.308044	0.276605
2.538	-0.0763904	0.276605
2.539	0.574742	0.276978
2.54	0.420973	0.276605
2.541	-0.0641476	0.276605
2.542	-0.481831	0.276605
2.543	-0.142329	0.276605
2.544	0.144924	0.276605
2.545	-0.205044	0.276978
2.546	0.146297	0.276605
2.547	0.157202	0.276605
2.548	0.0803587	0.276605
2.549	0.209148	0.276605
2.55	-0.19176	0.276605
2.551	-0.398611	0.276605
2.552	-0.0120931	0.276605
2.553	0.360426	0.276978
2.554	-0.0126104	0.276605
2.555	-0.332124	0.276605
2.556	0.309074	0.276978
2.557	0.250292	0.276978
2.558	-0.0867788	0.276605
2.559	-0.337666	0.276978
2.56	-0.187546	0.276978
2.561	0.171689	0.276978
2.562	0.166066	0.276605
2.563	0.0444354	0.276978
2.564	0.0839574	0.276978
2.565	-0.0549569	0.276978
2.566	-0.0150525	0.276605
2.567	-0.334719	0.276978
2.568	-0.106595	0.276978
2.569	0.334108	0.276978
2.57	0.302927	0.276978
2.571	-0.031839	0.276978
2.572	-0.199018	0.276978
2.573	-0.102724	0.276605
2.574	-0.0662109	0.276978
2.575	-0.183937	0.276978
2.576	0.205585	0.276605
2.577	0.292721	0.276605
2.578	-0.0760273	0.276978
2.579	-0.127344	0.276605
2.58	0.0268212	0.276978
2.581	0.117085	0.276605
2.582	-0.0704846	0.276605
2.583	-0.335608	0.276605
2.584	-0.0637343	0.276605
2.585	0.338141	0.276605
2.586	0.270232	0.276605
2.587	-0.0119928	0.276978
2.588	-0.179033	0.276978
2.589	-0.196393	0.276605
2.59	-0.135215	0.276605
2.591	0.0628435	0.276605
2.592	0.262573	0.276978
2.593	0.151316	0.276605
2.594	-0.091704	0.276605
2.595	-0.278097	0.276605
2.596	-0.187546	0.276605
2.597	0.200735	0.276605
2.598	0.383346	0.276605
2.599	0.0944806	0.276978
2.6	-0.153762	0.276605
2.601	-0.470226	0.276978
2.602	-0.0548208	0.276605
2.603	0.0113876	0.276978
2.604	0.463802	0.276978
2.605	0.102102	0.276978
2.606	-0.14824	0.276978
2.607	-0.00317869	0.276978
2.608	-0.0662727	0.276978
2.609	-0.282979	0.276978
2.61	-0.0173786	0.276605
2.611	0.33634	0.276605
2.612	0.148753	0.276605
2.613	-0.135487	0.276605
2.614	-0.134677	0.276605
2.615	0.00421583	0.276605
2.616	0.0722302	0.276605
2.617	-0.0961221	0.276605
2.618	-0.0983087	0.276605
2.619	0.0435945	0.276978
2.62	0.162486	0.276605
2.621	0.240125	0.276605
2.622	0.109022	0.276605
2.623	-0.309718	0.276605
2.624	-0.352185	0.276605
2.625	-0.128195	0.276605
2.626	0.12099	0.276605
2.627	0.211922	0.276605
2.628	0.20047	0.276605
2.629	0.365928	0.276605
2.63	-0.0303797	0.276605
2.631	-0.462059	0.276605
2.632	-0.305663	0.276978
2.633	-0.117152	0.276978
2.634	0.0715536	0.276605
2.635	0.37407	0.276978
2.636	0.226313	0.276605
2.637	0.038838	0.276605
2.638	-0.157528	0.276978
2.639	-0.17	0.276978
2.64	-0.101318	0.276978
2.641	-0.0670112	0.276605
2.642	0.238397	0.276605
2.643	0.245412	0.276978
2.644	-0.186608	0.276605
2.645	-0.427038	0.276605
2.646	0.139713	0.276605
2.647	0.113243	0.276978
2.648	0.0710903	0.276605
2.649	0.473686	0.276605
2.65	-0.0683118	0.276605
2.651	-0.515459	0.276605
2.652	-0.306788	0.276605
2.653	0.195596	0.276605
2.654	0.194999	0.276605
2.655	0.207094	0.276605
2.656	0.035245	0.276605
2.657	-0.209807	0.276605
2.658	-0.077627	0.276605
2.659	0.119027	0.276605
2.66	0.0416288	0.276605
2.661	-0.0678836	0.276605
2.662	0.00856197	0.276605
2.663	-0.205741	0.276605
2.664	-0.0506979	0.276605
2.665	0.277985	0.276605
2.666	0.180004	0.276605
2.667	-0.00608446	0.276605
2.668	-0.19933	0.276605
2.669	-0.186671	0.276605
2.67	-0.0209016	0.276605
2.671	0.200964	0.276605
2.672	0.208732	0.276605
2.673	-0.130354	0.276605
2.674	-0.26058	0.276605
2.675	0.0546468	0.276605
2.676	0.125912	0.276605
2.677	0.0106832	0.276605
2.678	-0.0385468	0.276605
2.679	0.166109	0.276605
2.68	-0.0479509	0.276978
2.681	-0.087779	0.276978
2.682	-0.076409	0.276605
2.683	-0.108833	0.276978
2.684	0.0100461	0.276605
2.685	0.0959726	0.276605
2.686	0.133313	0.276605
2.687	0.160576	0.276605
2.688	0.065308	0.276605
2.689	-0.208693	0.276978
2.69	-0.409183	0.276978
2.691	0.0465042	0.276978
2.692	0.200681	0.276978
2.693	0.0396692	0.276605
2.694	0.223655	0.276978
2.695	0.240772	0.276605
2.696	-0.450009	0.276605
2.697	-0.31856	0.276978
2.698	0.245496	0.276605
2.699	0.270163	0.276605
2.7	-0.133239	0.276978
2.701	-0.105048	0.276605
2.702	-0.0323069	0.276605
2.703	0.0603886	0.276605
2.704	0.106786	0.276605
2.705	-0.026489	0.276605
2.706	-0.116089	0.276605
2.707	0.201871	0.276605
2.708	0.131622	0.276605
2.709	-0.0521254	0.276605
2.71	-0.451023	0.276605
2.711	-0.467659	0.276605
2.712	0.561379	0.276978
2.713	0.420311	0.276978
2.714	0.0407466	0.276605
2.715	-0.0652616	0.276978
2.716	-0.100322	0.276978
2.717	-0.154485	0.276978
2.718	-0.17093	0.276978
2.719	0.0351029	0.276978
2.72	0.093988	0.276978
2.721	-0.0766906	0.276978
2.722	-0.0836465	0.276978
2.723	0.188771	0.276978
2.724	0.139445	0.276978
2.725	0.0972729	0.276978
2.726	0.254707	0.276978
2.727	-0.0806733	0.276978
2.728	-0.547489	0.276978
2.729	-0.442206	0.276978
2.73	0.112353	0.276978
2.731	0.246847	0.276978
2.732	0.39181	0.276978
2.733	0.310189	0.276978
2.734	-0.0527074	0.276978
2.735	-0.314585	0.276978
2.736	-0.251425	0.276978
2.737	-0.0242036	0.276978
2.738	0.150897	0.276978
2.739	0.0299783	0.276978
2.74	-0.0899423	0.276978
2.741	-0.052919	0.276978
2.742	0.0798436	0.276978
2.743	0.275711	0.276978
2.744	0.0817652	0.276978
2.745	-0.209075	0.276978
2.746	-0.264313	0.276978
2.747	-0.113129	0.276978
2.748	0.10549	0.276978
2.749	0.294398	0.276978
2.75	0.180282	0.276978
2.751	-0.0188749	0.276978
2.752	-0.113166	0.276978
2.753	-0.397392	0.276978
2.754	-0.156329	0.276978
2.755	0.396722	0.276978
2.756	-0.0934877	0.276978
2.757	-0.135071	0.276978
2.758	0.25607	0.276978
2.759	0.422089	0.276978
2.76	0.237608	0.276978
2.761	-0.264636	0.276978
2.762	-0.732446	0.276978
2.763	-0.958476	0.276978
2.764	0.527758	0.276978
2.765	1.24761	0.276978
2.766	0.372038	0.276978
2.767	-0.569256	0.276978
2.768	-0.395804	0.276978
2.769	-0.172126	0.276978
2.77	0.0321078	0.276978
2.771	0.229026	0.276978
2.772	0.162107	0.276978
2.773	-0.088146	0.276978
2.774	-0.136729	0.276978
2.775	0.0128819	0.276978
2.776	-0.0249916	0.276978
2.777	0.054585	0.276978
2.778	0.0393748	0.276978
2.779	-0.0536047	0.276978
2.78	-0.0326433	0.276978
2.781	0.184655	0.276978
2.782	0.179596	0.276978
2.783	-0.162051	0.276978
2.784	-0.226591	0.276978
2.785	-0.0954041	0.276978
2.786	-0.373011	0.276978
2.787	0.355422	0.276978
2.788	0.683243	0.276978
2.789	0.0841097	0.276978
2.79	-0.51207	0.276978
2.791	-0.535119	0.276978
2.792	0.382244	0.276978
2.793	0.417044	0.276978
2.794	-0.456898	0.276978
2.795	-0.152161	0.276978
2.796	0.330122	0.276978
2.797	0.164033	0.276978
2.798	-0.0296287	0.276978
2.799	-0.0921002	0.276978
2.8	-0.111142	0.276978
2.801	-0.215706	0.276978
2.802	-0.0359496	0.276978
2.803	0.299438	0.276978
2.804	0.281807	0.276978
2.805	0.059256	0.276978
2.806	-0.215771	0.276978
2.807	-0.469119	0.276978
2.808	0.0032896	0.276978
2.809	0.252192	0.276978
2.81	0.22443	0.276978
2.811	0.0929812	0.276978
2.812	-0.174131	0.276978
2.813	-0.256328	0.276978
2.814	0.0284797	0.276978
2.815	0.224884	0.276978
2.816	0.142183	0.276978
2.817	0.0231119	0.276978
2.818	-0.175313	0.276978
2.819	-0.367538	0.276978
2.82	-0.254946	0.276978
2.821	0.621596	0.276978
2.822	0.341094	0.276978
2.823	-0.185933	0.276978
2.824	-0.257469	0.276978
2.825	-0.0534653	0.276978
2.826	0.0920567	0.276978
2.827	0.0772234	0.276978
2.828	0.0817768	0.276978
2.829	-0.146517	0.276978
2.83	-0.324826	0.276978
2.831	-0.0579012	0.276978
2.832	0.280366	0.276978
2.833	0.276027	0.276978
2.834	0.174847	0.276978
2.835	-0.00251909	0.276978
2.836	-0.275595	0.276978
2.837	-0.287947	0.276978
2.838	0.0720382	0.276978
2.839	0.185986	0.276978
2.84	-0.292754	0.276978
2.841	-0.26365	0.276978
2.842	0.333649	0.276978
2.843	0.604876	0.276978
2.844	0.336693	0.276978
2.845	-0.414657	0.276978
2.846	-0.661164	0.276978
2.847	-0.168476	0.276978
2.848	0.241262	0.276978
2.849	0.291977	0.276978
2.85	0.0174529	0.276978
2.851	-0.0416637	0.276978
2.852	-0.0866473	0.276978
2.853	0.0186179	0.276978
2.854	0.186646	0.276605
2.855	0.223833	0.276978
2.856	-0.0914443	0.276978
2.857	-0.497012	0.276978
2.858	-0.17408	0.276978
2.859	0.108456	0.276978
2.86	0.134135	0.276978
2.861	0.3333	0.276978
2.862	0.189827	0.276978
2.863	-0.293803	0.276978
2.864	-0.167668	0.276978
2.865	0.0975019	0.276978
2.866	0.107028	0.276978
2.867	0.0198998	0.276978
2.868	-0.166238	0.276978
2.869	-0.335998	0.276978
2.87	-0.181777	0.276978
2.871	0.619609	0.276978
2.872	0.425308	0.276978
2.873	-0.148677	0.276978
2.874	-0.319128	0.276978
2.875	-0.0466655	0.276978
2.876	-0.00808807	0.276978
2.877	-0.363935	0.276978
2.878	0.0405819	0.276978
2.879	0.558639	0.276978
2.88	0.21158	0.276978
2.881	-0.461004	0.276978
2.882	-0.244949	0.276978
2.883	0.237595	0.276978
2.884	0.204055	0.276978
2.885	-0.0368439	0.276978
2.886	-0.145489	0.276978
2.887	-0.0121875	0.276978
2.888	0.0872038	0.276978
2.889	-0.0831969	0.276978
2.89	-0.180807	0.276978
2.891	-0.0210617	0.276978
2.892	0.218866	0.276978
2.893	0.26897	0.276978
2.894	0.199778	0.276978
2.895	-0.142206	0.276978
2.896	-0.62629	0.276978
2.897	-0.284591	0.276978
2.898	0.417079	0.276978
2.899	0.297877	0.276978
2.9	0.120743	0.276978
2.901	-0.114971	0.276978
2.902	-0.110142	0.276978
2.903	0.00953041	0.276978
2.904	0.0519713	0.276978
2.905	-0.0940475	0.276978
2.906	-0.0303708	0.276978
2.907	0.0271007	0.276978
2.908	-0.105747	0.276978
2.909	0.0417645	0.276978
2.91	0.184227	0.276978
2.911	0.0249385	0.276605
2.912	-0.0961944	0.276978
2.913	-0.112387	0.276978
2.914	0.0594326	0.276605
2.915	0.127231	0.276978
2.916	0.011289	0.276605
2.917	-0.107181	0.276605
2.918	-0.0570819	0.276605
2.919	-0.0206218	0.276605
2.92	-0.0311761	0.276605
2.921	0.073848	0.276605
2.922	0.113745	0.276605
2.923	0.0570637	0.276605
2.924	-0.162833	0.276605
2.925	-0.0139306	0.276605
2.926	0.117751	0.276605
2.927	-0.0665413	0.276605
2.928	-0.0667628	0.276605
2.929	-0.00460552	0.276605
2.93	0.00432098	0.276605
2.931	0.099611	0.276605
2.932	0.0294242	0.276605
2.933	-0.0174064	0.276605
2.934	-0.10563	0.276605
2.935	-0.0572273	0.276605
2.936	0.156065	0.276605
2.937	0.0121481	0.276605
2.938	-0.0373612	0.276605
2.939	-0.161333	0.276605
2.94	0.0513204	0.276605
2.941	0.324818	0.276605
2.942	0.0295979	0.276605
2.943	-0.305979	0.276605
2.944	-0.371324	0.276605
2.945	0.164487	0.276605
2.946	0.194327	0.276605
2.947	0.162256	0.276605
2.948	0.22939	0.276605
2.949	0.0989183	0.276605
2.95	-0.240838	0.276605
2.951	-0.443918	0.276605
2.952	-0.402354	0.276605
2.953	0.0790223	0.276978
2.954	0.53209	0.276605
2.955	0.564552	0.276605
2.956	0.112462	0.276605
2.957	-0.336923	0.276978
2.958	-0.38638	0.276978
2.959	-0.384861	0.276978
2.96	-0.149519	0.276978
2.961	0.493486	0.276978
2.962	0.521919	0.276978
2.963	-0.04807	0.276978
2.964	-0.277063	0.276978
2.965	-0.186517	0.276978
2.966	-0.0832105	0.276978
2.967	0.130685	0.276978
2.968	0.0820226	0.276978
2.969	-0.0692578	0.276978
2.97	0.0311193	0.276978
2.971	0.166713	0.276978
2.972	0.0189822	0.276978
2.973	-0.155594	0.276605
2.974	-0.172476	0.276978
2.975	-0.0108006	0.276978
2.976	0.132466	0.276605
2.977	0.156906	0.276605
2.978	0.00570762	0.276605
2.979	-0.151015	0.276605
2.98	-0.120167	0.276605
2.981	0.114434	0.276605
2.982	0.173818	0.276605
2.983	0.0220831	0.276605
2.984	-0.111657	0.276605
2.985	-0.169195	0.276605
2.986	-0.0617136	0.276605
2.987	0.0964909	0.276605
2.988	0.191634	0.276605
2.989	0.0088369	0.276605
2.99	-0.102993	0.276978
2.991	-0.0427479	0.276605
2.992	0.00155068	0.276978
2.993	0.0826133	0.276978
2.994	0.0466389	0.276605
2.995	-0.064404	0.276605
2.996	-0.106522	0.276605
2.997	-0.0214257	0.276978
2.998	0.108063	0.276978
2.999	0.0181623	0.276605
3	-0.14949	0.276605
3.001	-0.0732185	0.276978
3.002	0.156491	0.276978
3.003	0.384107	0.276978
3.004	0.165668	0.276978
3.005	-0.350145	0.276978
3.006	-0.642707	0.276978
3.007	-0.221971	0.276978
3.008	0.625783	0.276978
3.009	0.364144	0.276978
3.01	-0.0739825	0.276978
3.011	-0.0173502	0.276978
3.012	0.061272	0.276978
3.013	-0.331218	0.276978
3.014	-0.316617	0.276978
3.015	0.136229	0.276978
3.016	0.307574	0.276978
3.017	0.0759127	0.276978
3.018	-0.0375731	0.276978
3.019	0.0476187	0.276978
3.02	-0.108833	0.276978
3.021	-0.126498	0.276978
3.022	-0.03424	0.276978
3.023	0.0266814	0.276978
3.024	0.136909	0.276978
3.025	0.0360471	0.276978
3.026	-0.0991402	0.276978
3.027	-0.00946022	0.276978
3.028	0.143895	0.276978
3.029	-0.0163567	0.276978
3.03	-0.112445	0.276978
3.031	-0.0870043	0.276978
3.032	0.0227124	0.276978
3.033	-0.0340481	0.276978
3.034	0.0935402	0.276978
3.035	0.166082	0.276978
3.036	-0.0719987	0.276978
3.037	0.00416494	0.276978
3.038	-0.0524413	0.276978
3.039	0.0316029	0.276978
3.04	-0.169798	0.276978
3.041	-0.148271	0.276978
3.042	0.153878	0.276978
3.043	0.284676	0.276978
3.044	0.00212825	0.276978
3.045	-0.069066	0.276978
3.046	-0.0719979	0.276978
3.047	-0.0508408	0.276978
3.048	-0.0536377	0.276978
3.049	-0.0353918	0.276978
3.05	-0.145785	0.276978
3.051	0.116613	0.276978
3.052	0.406595	0.276978
3.053	0.00151643	0.276978
3.054	-0.159444	0.276978
3.055	-0.0488046	0.276978
3.056	-0.212368	0.276978
3.057	-0.161796	0.276978
3.058	0.138185	0.276978
3.059	0.207792	0.276978
3.06	0.245133	0.276978
3.061	-0.0459822	0.276978
3.062	-0.395471	0.276978
3.063	-0.184697	0.276978
3.064	0.324085	0.276978
3.065	0.26796	0.276978
3.066	-0.0912747	0.276978
3.067	-0.127487	0.276978
3.068	-0.139596	0.276978
3.069	-0.0942785	0.276978
3.07	0.050659	0.276978
3.071	0.185004	0.276978
3.072	0.0942483	0.276978
3.073	-0.0739743	0.276978
3.074	-0.125596	0.276978
3.075	0.0199649	0.276978
3.076	0.0923432	0.276978
3.077	0.278546	0.276978
3.078	-0.0410328	0.276978
3.079	-0.716227	0.276978
3.08	-0.135412	0.276978
3.081	0.53096	0.276978
3.082	0.344381	0.276978
3.083	0.0165759	0.276978
3.084	-0.181022	0.276978
3.085	-0.2216	0.276978
3.086	-0.0697656	0.276978
3.087	-0.0937609	0.276978
3.088	0.226552	0.276978
3.089	0.321248	0.276978
3.09	0.00994196	0.276978
3.091	-0.324733	0.276978
3.092	-0.23829	0.276978
3.093	-0.0347285	0.276978
3.094	0.27179	0.276978
3.095	0.133549	0.276978
3.096	-0.11104	0.276978
3.097	-0.104716	0.276978
3.098	0.253456	0.276978
3.099	0.356731	0.276978
3.1	-0.325629	0.276978
3.101	-0.505031	0.276978
3.102	-0.314897	0.276978
3.103	0.350349	0.276978
3.104	0.641372	0.276978
3.105	0.109971	0.276978
3.106	-0.381204	0.276978
3.107	-0.350269	0.276978
3.108	0.0949553	0.276978
3.109	0.182852	0.276978
3.11	0.104795	0.276978
3.111	0.114963	0.276978
3.112	-0.215991	0.276978
3.113	-0.278635	0.276978
3.114	-0.0194953	0.276978
3.115	0.26576	0.276978
3.116	0.260659	0.276978
3.117	-0.0454513	0.276978
3.118	-0.255197	0.276978
3.119	-0.0807031	0.276978
3.12	0.0895988	0.276978
3.121	0.181906	0.276978
3.122	-0.0842869	0.276978
3.123	-0.186264	0.276978
3.124	-0.064548	0.276978
3.125	0.110229	0.276978
3.126	0.182289	0.276978
3.127	0.149205	0.276978
3.128	0.0896306	0.276978
3.129	-0.281944	0.276978
3.13	-0.393298	0.276978
3.131	-0.0217124	0.276978
3.132	0.216285	0.276978
3.133	0.229499	0.276978
3.134	0.19636	0.276978
3.135	-0.0814051	0.276978
3.136	-0.193524	0.276978
3.137	-0.0496008	0.276978
3.138	0.0809971	0.276978
3.139	-0.0653839	0.276978
3.14	-0.0979514	0.276978
3.141	0.015223	0.276978
3.142	0.118254	0.276978
3.143	0.0106605	0.276978
3.144	-0.0648785	0.276978
3.145	0.199405	0.276978
3.146	0.063598	0.276978
3.147	-0.147739	0.276978
3.148	-0.219458	0.276978
3.149	0.0647487	0.276978
3.15	0.157946	0.276978
3.151	-0.148007	0.276978
3.152	-0.115021	0.276978
3.153	0.00469657	0.276978
3.154	0.255966	0.276978
3.155	0.370899	0.276978
3.156	-0.0475138	0.276978
3.157	-0.294215	0.276978
3.158	-0.415873	0.276978
3.159	-0.109666	0.276978
3.16	0.268303	0.276978
3.161	0.35327	0.276978
3.162	0.0462779	0.276978
3.163	-0.316361	0.276978
3.164	-0.121456	0.276978
3.165	0.258276	0.276978
3.166	0.254154	0.276978
3.167	-0.0673567	0.276978
3.168	-0.229444	0.276978
3.169	-0.344415	0.276978
3.17	0.0159831	0.276978
3.171	0.498595	0.276978
3.172	0.0900952	0.276978
3.173	-0.301954	0.276978
3.174	-0.23896	0.276978
3.175	0.000234652	0.276978
3.176	0.208201	0.276978
3.177	0.342615	0.276978
3.178	0.142434	0.276978
3.179	-0.141995	0.276978
3.18	-0.301205	0.276978
3.181	-0.199436	0.276978
3.182	-0.31318	0.276978
3.183	0.203385	0.276978
3.184	0.462598	0.276978
3.185	0.0146941	0.276978
3.186	-0.132528	0.276978
3.187	0.132204	0.276978
3.188	0.211658	0.276978
3.189	-0.204774	0.276978
3.19	-0.249918	0.276978
3.191	-0.367181	0.276978
3.192	0.121109	0.276978
3.193	0.332072	0.276978
3.194	0.185814	0.276978
3.195	0.0567012	0.276978
3.196	-0.137764	0.276978
3.197	-0.184799	0.276978
3.198	0.0343715	0.276978
3.199	0.10378	0.276978
3.2	-0.127464	0.276978
3.201	-0.136862	0.276978
3.202	0.0622236	0.276978
3.203	0.345261	0.276978
3.204	0.187052	0.276978
3.205	-0.184604	0.276978
3.206	-0.526562	0.276978
3.207	-0.120062	0.276978
3.208	0.386769	0.276978
3.209	0.218958	0.276978
3.21	0.114924	0.276978
3.211	-0.0579672	0.276978
3.212	-0.253887	0.276978
3.213	-0.256867	0.276978
3.214	0.0974953	0.276978
3.215	0.284565	0.276978
3.216	0.104452	0.276978
3.217	-0.11925	0.276978
3.218	-0.191859	0.276978
3.219	-0.00319385	0.276978
3.22	0.16743	0.276978
3.221	0.15998	0.276978
3.222	-0.138493	0.276978
3.223	-0.276124	0.276978
3.224	0.122829	0.276978
3.225	0.0619919	0.276978
3.226	0.0748829	0.276978
3.227	0.0625747	0.276978
3.228	-0.0240266	0.276978
3.229	-0.075562	0.276978
3.23	-0.0915959	0.276978
3.231	0.00259232	0.276978
3.232	0.102459	0.276978
3.233	0.0909946	0.276978
3.234	-0.0711988	0.276978
3.235	-0.152506	0.276978
3.236	-0.0543816	0.276978
3.237	0.086257	0.276978
3.238	0.260577	0.276978
3.239	0.051352	0.276978
3.24	-0.0720181	0.276978
3.241	-0.198527	0.276978
3.242	-0.242928	0.276978
3.243	0.118728	0.276978
3.244	0.309236	0.276978
3.245	0.0103925	0.276978
3.246	-0.282836	0.276978
3.247	-0.022414	0.276978
3.248	0.183447	0.276978
3.249	0.0975168	0.276978
3.25	0.00450648	0.276978
3.251	-0.131293	0.276978
3.252	-0.123334	0.276978
3.253	0.137246	0.276978
3.254	0.0396529	0.276978
3.255	-0.0729223	0.276978
3.256	-0.197313	0.276978
3.257	0.0289186	0.276978
3.258	0.1906	0.276978
3.259	0.17703	0.276978
3.26	-0.00743814	0.276978
3.261	-0.171033	0.276605
3.262	-0.0510269	0.276605
3.263	-0.0411038	0.276605
3.264	0.00898696	0.276605
3.265	0.0514067	0.276605
3.266	-0.0573203	0.276605
3.267	-0.091266	0.276605
3.268	0.12446	0.276978
3.269	0.24093	0.276605
3.27	0.00534925	0.276605
3.271	-0.0117253	0.276605
3.272	-0.324192	0.276605
3.273	-0.339575	0.276978
3.274	0.231916	0.276978
3.275	0.596617	0.276978
3.276	-0.069765	0.276978
3.277	-0.356167	0.276978
3.278	-0.0165613	0.276978
3.279	0.0173957	0.276978
3.28	-0.0587699	0.276978
3.281	0.0292808	0.276978
3.282	0.15418	0.276978
3.283	0.204081	0.276978
3.284	-0.0848385	0.276605
3.285	-0.275217	0.276978
3.286	-0.268982	0.276978
3.287	0.109966	0.276978
3.288	0.567037	0.276978
3.289	0.099013	0.276978
3.29	-0.337161	0.276978
3.291	-0.344657	0.276978
3.292	0.0140289	0.276978
3.293	0.251165	0.276978
3.294	0.180101	0.276978
3.295	-0.0683834	0.276978
3.296	-0.19443	0.276978
3.297	0.0597752	0.276978
3.298	0.139728	0.276978
3.299	0.055459	0.276978
3.3	-0.143142	0.276978
3.301	-0.165361	0.276978
3.302	-0.0327045	0.276978
3.303	0.0695575	0.276978
3.304	0.154866	0.276978
3.305	0.188881	0.276978
3.306	-0.0943285	0.276978
3.307	-0.190617	0.276978
3.308	-0.0499945	0.276978
3.309	0.0681691	0.276978
3.31	0.175308	0.276978
3.311	0.0943618	0.276978
3.312	-0.475396	0.276978
3.313	-0.269952	0.276978
3.314	0.56925	0.276978
3.315	0.184814	0.276978
3.316	-0.000961936	0.276978
3.317	-0.0104449	0.276978
3.318	-0.238804	0.276978
3.319	-0.244345	0.276978
3.32	0.0313941	0.276978
3.321	0.16416	0.276978
3.322	0.13328	0.276978
3.323	0.0216276	0.276978
3.324	-0.0697508	0.276978
3.325	-0.011474	0.276978
3.326	0.0217087	0.276978
3.327	0.0334625	0.276978
3.328	-0.0754241	0.276978
3.329	-0.097219	0.276978
3.33	-0.0558115	0.276978
3.331	0.159493	0.276978
3.332	0.152705	0.276978
3.333	-0.0777735	0.276978
3.334	-0.153267	0.276978
3.335	0.0303547	0.276978
3.336	0.0255555	0.276978
3.337	-0.0416214	0.276978
3.338	0.0707825	0.276978
3.339	0.00223097	0.276978
3.34	-0.0455364	0.276978
3.341	0.0880849	0.276978
3.342	0.0665127	0.276978
3.343	0.00741068	0.276978
3.344	-0.00486551	0.276978
3.345	-0.311551	0.276978
3.346	-0.454908	0.276978
3.347	0.360038	0.276978
3.348	0.690869	0.276978
3.349	0.103511	0.276978
3.35	-0.297846	0.276978
3.351	-0.292551	0.276978
3.352	-0.231798	0.276978
3.353	0.0279731	0.276978
3.354	0.29177	0.276978
3.355	0.0619567	0.276978
3.356	-0.0150159	0.276978
3.357	0.00436487	0.276978
3.358	-0.0515727	0.276978
3.359	-0.0392282	0.276978
3.36	0.0178625	0.276978
3.361	0.00591365	0.276978
3.362	-0.0330977	0.276978
3.363	-0.07889	0.276978
3.364	0.151773	0.276978
3.365	0.103373	0.276978
3.366	-0.092951	0.276978
3.367	-0.0476673	0.276978
3.368	-0.150703	0.276978
3.369	-0.209855	0.276978
3.37	0.284714	0.276978
3.371	0.545314	0.276978
3.372	0.0147889	0.276978
3.373	-0.437156	0.276978
3.374	-0.445883	0.276978
3.375	0.00440885	0.276978
3.376	0.176553	0.276605
3.377	0.279473	0.276978
3.378	0.1534	0.276978
3.379	-0.0793664	0.276978
3.38	0.0377232	0.276978
3.381	0.0409542	0.276978
3.382	-0.00604714	0.276605
3.383	-0.291548	0.276605
3.384	-0.448619	0.276605
3.385	0.105824	0.276605
3.386	0.356887	0.276605
3.387	0.232043	0.276978
3.388	0.245895	0.276978
3.389	-0.0439098	0.276605
3.39	-0.294397	0.276978
3.391	-0.127754	0.276978
3.392	-0.0401916	0.276605
3.393	-0.103448	0.276978
3.394	-0.0143099	0.276605
3.395	0.0977781	0.276978
3.396	0.0777102	0.276978
3.397	0.120825	0.276978
3.398	0.218293	0.276978
3.399	0.0599262	0.276605
3.4	-0.200124	0.276978
3.401	-0.401584	0.276978
3.402	-0.275766	0.276978
3.403	0.235381	0.276605
3.404	0.570092	0.276978
3.405	0.213577	0.276978
3.406	-0.480163	0.276978
3.407	-0.41821	0.276978
3.408	0.211797	0.276978
3.409	0.409907	0.276978
3.41	0.118659	0.276978
3.411	-0.276992	0.276978
3.412	-0.310971	0.276978
3.413	-0.0736066	0.276978
3.414	0.275783	0.276978
3.415	0.262375	0.276978
3.416	-0.0152774	0.276978
3.417	-0.148416	0.276978
3.418	-0.19651	0.276978
3.419	-0.0542581	0.276978
3.42	0.152967	0.276978
3.421	0.229242	0.276978
3.422	0.0830008	0.276978
3.423	-0.246871	0.276978
3.424	-0.247962	0.276978
3.425	-0.0704855	0.276978
3.426	0.191335	0.276978
3.427	0.350476	0.276978
3.428	0.00322701	0.276978
3.429	-0.227739	0.276978
3.43	-0.149157	0.276978
3.431	0.106423	0.276978
3.432	0.0843044	0.276978
3.433	-0.0504969	0.276978
3.434	-0.127366	0.276978
3.435	-0.266741	0.276978
3.436	0.157404	0.276978
3.437	0.731301	0.276978
3.438	0.0714646	0.276978
3.439	-0.542151	0.276978
3.44	-0.327595	0.276978
3.441	-0.0840755	0.276978
3.442	0.0724196	0.276978
3.443	0.192748	0.276978
3.444	0.405694	0.276978
3.445	0.130942	0.276978
3.446	-0.372962	0.276978
3.447	-0.198252	0.276978
3.448	0.0221225	0.276978
3.449	0.0385208	0.276978
3.45	0.0166888	0.276978
3.451	0.0411278	0.276978
3.452	0.0226492	0.276978
3.453	0.0653415	0.276978
3.454	0.0106258	0.276978
3.455	0.09166	0.276978
3.456	-0.036668	0.276978
3.457	-0.326072	0.276978
3.458	-0.134997	0.276978
3.459	0.304949	0.276978
3.46	0.281148	0.276978
3.461	0.00989048	0.276978
3.462	-0.221628	0.276978
3.463	-0.30127	0.276978
3.464	0.0522551	0.276978
3.465	0.223487	0.276978
3.466	0.138429	0.276978
3.467	0.00870341	0.276978
3.468	-0.117367	0.276978
3.469	-0.101304	0.276978
3.47	-0.00563363	0.276978
3.471	0.0195432	0.276978
3.472	0.0687307	0.276978
3.473	-0.0271486	0.276978
3.474	-0.111625	0.276978
3.475	0.105657	0.276978
3.476	0.129404	0.276978
3.477	-0.00338727	0.276978
3.478	-0.0720451	0.276978
3.479	-0.152	0.276978
3.48	-0.0698811	0.276978
3.481	0.154498	0.276978
3.482	0.0911618	0.276978
3.483	-0.00640722	0.276978
3.484	-0.0520154	0.276978
3.485	0.0389602	0.276978
3.486	-0.00481152	0.276978
3.487	-0.0574765	0.276978
3.488	0.0220262	0.276978
3.489	-0.179084	0.276978
3.49	-0.0506755	0.276978
3.491	0.241656	0.276978
3.492	0.210249	0.276978
3.493	0.0559681	0.276978
3.494	-0.107593	0.276978
3.495	-0.224308	0.276978
3.496	-0.342473	0.276978
3.497	-0.039051	0.276978
3.498	0.344502	0.276978
3.499	0.368819	0.276978
3.5	0.155275	0.276978
3.501	-0.224301	0.276978
3.502	-0.328427	0.276978
3.503	-0.196699	0.276978
3.504	0.177166	0.276978
3.505	0.190714	0.276978
3.506	-0.0983454	0.276978
3.507	-0.0121596	0.276978
3.508	0.0383016	0.276978
3.509	0.0334028	0.276978
3.51	0.141807	0.276978
3.511	-0.0376946	0.276978
3.512	-0.146888	0.276978
3.513	-0.144366	0.276978
3.514	0.0595358	0.276978
3.515	0.118825	0.276978
3.516	0.0480916	0.276978
3.517	-0.108041	0.276978
3.518	-0.153767	0.276978
3.519	0.137908	0.276978
3.52	0.154339	0.276978
3.521	0.125928	0.276978
3.522	-0.0336144	0.276978
3.523	-0.178135	0.276978
3.524	-0.223142	0.276978
3.525	-0.0710399	0.276978
3.526	0.230451	0.276978
3.527	0.228611	0.276978
3.528	-0.051752	0.276978
3.529	-0.206539	0.276978
3.53	-0.0226757	0.276978
3.531	0.172393	0.276978
3.532	0.127877	0.276978
3.533	-0.0100813	0.276978
3.534	-0.302587	0.276978
3.535	-0.257291	0.276978
3.536	0.0829792	0.276978
3.537	0.378439	0.276978
3.538	0.420012	0.276978
3.539	-0.129187	0.276978
3.54	-0.55326	0.276978
3.541	-0.126721	0.276978
3.542	0.202082	0.276978
3.543	0.133607	0.276978
3.544	-0.0144693	0.276978
3.545	-0.0196729	0.276978
3.546	-0.00986079	0.276978
3.547	0.0848722	0.276605
3.548	0.0600576	0.276978
3.549	-0.0022572	0.276978
3.55	-0.143431	0.276978
3.551	-0.0546434	0.276978
3.552	-0.00577445	0.276978
3.553	-0.0805209	0.276978
3.554	0.103735	0.276978
3.555	0.208419	0.276605
3.556	0.0070909	0.276978
3.557	-0.214746	0.276605
3.558	-0.0303163	0.276605
3.559	0.0608234	0.276605
3.56	0.0932186	0.276978
3.561	0.0524446	0.276978
3.562	-0.11298	0.276978
3.563	-0.147652	0.276978
3.564	0.0444748	0.276978
3.565	0.12662	0.276978
3.566	-0.0443539	0.276978
3.567	-0.0946591	0.276605
3.568	0.154323	0.276605
3.569	0.118399	0.276978
3.57	-0.162879	0.276978
3.571	-0.00431148	0.276978
3.572	0.0603374	0.276978
3.573	-0.0902577	0.276978
3.574	-0.152696	0.276605
3.575	-0.019208	0.276978
3.576	0.182624	0.276978
3.577	0.26168	0.276978
3.578	-0.086241	0.276605
3.579	-0.215895	0.276605
3.58	-0.0345229	0.276605
3.581	0.074692	0.276978
3.582	0.0668257	0.276605
3.583	0.0337234	0.276978
3.584	-0.125616	0.276605
3.585	-0.160483	0.276605
3.586	0.0308423	0.276605
3.587	0.202581	0.276605
3.588	0.150756	0.276978
3.589	0.00880747	0.276605
3.59	-0.0772961	0.276605
3.591	-0.108923	0.276605
3.592	-0.111982	0.276978
3.593	0.00982099	0.276978
3.594	-0.0320093	0.276978
3.595	-0.0087483	0.276978
3.596	0.0530295	0.276978
3.597	0.18757	0.276978
3.598	0.157258	0.276978
3.599	-0.072162	0.276978
3.6	-0.188622	0.276978
3.601	-0.137146	0.276978
3.602	-0.0735517	0.276978
3.603	0.0974923	0.276978
3.604	0.292563	0.276978
3.605	0.0438404	0.276978
3.606	-0.213759	0.276978
3.607	-0.194522	0.276978
3.608	-0.0194721	0.276978
3.609	0.13296	0.276978
3.61	0.181547	0.276978
3.611	0.118703	0.276978
3.612	-0.0142464	0.276978
3.613	-0.146637	0.276978
3.614	-0.197551	0.276978
3.615	-0.222755	0.276978
3.616	0.226425	0.276978
3.617	0.293999	0.276978
3.618	-0.0547799	0.276978
3.619	-0.0783697	0.276978
3.62	-0.032556	0.276978
3.621	0.052343	0.276978
3.622	-0.0163377	0.276978
3.623	-0.105582	0.276978
3.624	-0.0343612	0.276978
3.625	0.13898	0.276978
3.626	0.0992083	0.276978
3.627	-0.0885595	0.276978
3.628	-0.241105	0.276978
3.629	0.0534045	0.276978
3.63	0.221843	0.276978
3.631	0.0679045	0.276978
3.632	-0.0265136	0.276978
3.633	-0.131458	0.276978
3.634	-0.0881051	0.276978
3.635	0.0159201	0.276978
3.636	-0.0568032	0.276978
3.637	0.227577	0.276978
3.638	0.156494	0.276978
3.639	-0.224993	0.276978
3.64	-0.203601	0.276978
3.641	-0.00680495	0.276978
3.642	0.232572	0.276978
3.643	0.157243	0.276978
3.644	-0.0247602	0.276978
3.645	-0.203173	0.276978
3.646	-0.159296	0.276978
3.647	0.0686495	0.276978
3.648	0.150146	0.276978
3.649	0.115071	0.276605
3.65	-0.0368126	0.276605
3.651	-0.247073	0.276978
3.652	-0.120198	0.276978
3.653	0.216421	0.276978
3.654	0.236231	0.276978
3.655	0.0963877	0.276978
3.656	-0.206458	0.276978
3.657	-0.203637	0.276978
3.658	0.010939	0.276978
3.659	0.0567554	0.276978
3.66	-0.0555899	0.276978
3.661	0.000222303	0.276978
3.662	0.0101406	0.276978
3.663	0.0336133	0.276978
3.664	0.206145	0.276978
3.665	0.223562	0.276978
3.666	-0.098827	0.276978
3.667	-0.291969	0.276978
3.668	-0.319929	0.276978
3.669	-0.0671494	0.276605
3.67	0.213884	0.276605
3.671	0.351948	0.276978
3.672	0.0998294	0.276978
3.673	-0.099771	0.276605
3.674	-0.109796	0.276978
3.675	-0.0642676	0.276978
3.676	-0.0300503	0.276978
3.677	0.00693604	0.276978
3.678	-0.0256766	0.276978
3.679	-0.117461	0.276605
3.68	0.0490459	0.276605
3.681	0.189911	0.276978
3.682	0.0642251	0.276605
3.683	0.0912691	0.276978
3.684	-0.024208	0.276978
3.685	-0.125901	0.276978
3.686	-0.17047	0.276978
3.687	-0.110588	0.276978
3.688	0.0385843	0.276605
3.689	0.126922	0.276605
3.69	0.0678811	0.276978
3.691	-0.00781462	0.276978
3.692	0.119797	0.276605
3.693	0.243279	0.276978
3.694	-0.070007	0.276978
3.695	-0.266476	0.276605
3.696	-0.39161	0.276605
3.697	-0.233645	0.276605
3.698	0.442437	0.276978
3.699	0.458099	0.276978
3.7	0.0665177	0.276605
3.701	-0.204513	0.276605
3.702	-0.184028	0.276605
3.703	-0.103147	0.276605
3.704	-0.0121286	0.276978
3.705	0.0508052	0.276605
3.706	0.0757626	0.276605
3.707	0.0564852	0.276605
3.708	0.0269326	0.276978
3.709	-0.0138203	0.276605
3.71	-0.061502	0.276605
3.711	0.033372	0.276978
3.712	-0.0384431	0.276605
3.713	-0.198257	0.276605
3.714	0.0141277	0.276978
3.715	0.343161	0.276978
3.716	0.0692086	0.276978
3.717	-0.0816083	0.276978
3.718	-0.239871	0.276605
3.719	-0.223484	0.276605
3.72	0.247802	0.276978
3.721	0.252659	0.276978
3.722	0.00663885	0.276978
3.723	-0.0808659	0.276978
3.724	-0.161504	0.276978
3.725	-0.0929434	0.276978
3.726	-0.0268482	0.276978
3.727	0.0946029	0.276978
3.728	0.30484	0.276978
3.729	0.0783249	0.276978
3.73	-0.33354	0.276978
3.731	-0.273076	0.276978
3.732	0.166878	0.276978
3.733	0.240918	0.276978
3.734	0.0480669	0.276978
3.735	-0.0895551	0.276978
3.736	-0.095055	0.276978
3.737	-0.0117972	0.276978
3.738	0.106648	0.276978
3.739	-0.0598549	0.276978
3.74	-0.105714	0.276978
3.741	-0.0349802	0.276978
3.742	0.0247885	0.276978
3.743	0.114931	0.276978
3.744	0.184066	0.276978
3.745	0.125092	0.276978
3.746	-0.122989	0.276978
3.747	-0.385539	0.276978
3.748	-0.153389	0.276978
3.749	0.15798	0.276978
3.75	0.197261	0.276978
3.751	0.0886228	0.276978
3.752	0.00592215	0.276978
3.753	0.0113266	0.276978
3.754	-0.00633591	0.276978
3.755	-0.128523	0.276978
3.756	-0.049444	0.276978
3.757	-0.0233249	0.276978
3.758	-0.00279773	0.276978
3.759	0.10101	0.276978
3.76	0.043745	0.276605
3.761	0.0898876	0.276978
3.762	0.00366943	0.276978
3.763	-0.273919	0.276978
3.764	-0.110867	0.276978
3.765	0.249295	0.276978
3.766	0.152428	0.276978
3.767	0.026838	0.276605
3.768	-0.166091	0.276978
3.769	-0.149684	0.276605
3.77	0.0461692	0.276978
3.771	0.132163	0.276978
3.772	0.169926	0.276978
3.773	-0.0959641	0.276978
3.774	-0.194414	0.276978
3.775	-0.144306	0.276605
3.776	0.0566524	0.276605
3.777	0.172773	0.276978
3.778	0.18985	0.276605
3.779	0.063395	0.276978
3.78	-0.203206	0.276978
3.781	-0.142658	0.276605
3.782	-0.0207361	0.276978
3.783	0.229393	0.276605
3.784	0.0770806	0.276605
3.785	-0.309323	0.276605
3.786	-0.288938	0.276605
3.787	0.289401	0.276605
3.788	0.375101	0.276605
3.789	0.0201989	0.276605
3.79	-0.379451	0.276605
3.791	-0.175638	0.276978
3.792	0.357289	0.276605
3.793	0.298122	0.276978
3.794	-0.136653	0.276605
3.795	-0.380921	0.276605
3.796	-0.280197	0.276605
3.797	-0.10963	0.276605
3.798	0.289256	0.276605
3.799	0.580049	0.276605
3.8	0.145717	0.276978
3.801	-0.132661	0.276978
3.802	-0.372258	0.276978
3.803	-0.34287	0.276978
3.804	-0.112361	0.276978
3.805	0.301294	0.276605
3.806	0.219629	0.276978
3.807	0.0679654	0.276978
3.808	0.0987712	0.276978
3.809	-0.046333	0.276978
3.81	-0.207081	0.276978
3.811	-0.143779	0.276978
3.812	0.0432954	0.276978
3.813	-0.0896251	0.276605
3.814	-0.0542834	0.276605
3.815	0.263817	0.276978
3.816	0.326766	0.276605
3.817	0.118822	0.276605
3.818	-0.313976	0.276605
3.819	-0.380718	0.276605
3.82	-0.191255	0.276978
3.821	0.195233	0.276605
3.822	0.404848	0.276605
3.823	0.0612719	0.276605
3.824	-0.147927	0.276978
3.825	-0.0734079	0.276978
3.826	0.00860217	0.276605
3.827	0.0139383	0.276978
3.828	0.0246268	0.276605
3.829	-0.10056	0.276605
3.83	-0.150382	0.276605
3.831	0.134906	0.276978
3.832	0.207678	0.276605
3.833	0.0818627	0.276605
3.834	-0.0399387	0.276605
3.835	-0.209451	0.276605
3.836	-0.171304	0.276605
3.837	-0.0186667	0.276978
3.838	0.25724	0.276605
3.839	0.216061	0.276978
3.84	-0.115774	0.276605
3.841	-0.14173	0.276605
3.842	-0.0558138	0.276605
3.843	0.0509769	0.276605
3.844	0.158355	0.276605
3.845	-0.0407242	0.276605
3.846	-0.173484	0.276605
3.847	-0.130335	0.276605
3.848	0.140127	0.276605
3.849	0.236104	0.276605
3.85	0.077372	0.276605
3.851	-0.122653	0.276978
3.852	-0.23509	0.276605
3.853	-0.0194206	0.276605
3.854	0.0606953	0.276605
3.855	0.0845653	0.276605
3.856	0.00461741	0.276605
3.857	0.0463197	0.276605
3.858	0.1397	0.276605
3.859	-0.00763928	0.276605
3.86	-0.170356	0.276605
3.861	-0.174447	0.276605
3.862	-0.137407	0.276605
3.863	-0.0109132	0.276605
3.864	0.249254	0.276605
3.865	0.357131	0.276605
3.866	0.149004	0.276605
3.867	-0.250835	0.276605
3.868	-0.207181	0.276605
3.869	-0.372076	0.276605
3.87	-0.15281	0.276605
3.871	0.407248	0.276605
3.872	0.400646	0.276605
3.873	-0.0753152	0.276605
3.874	-0.162804	0.276605
3.875	-0.0531123	0.276605
3.876	-0.0261782	0.276605
3.877	-0.0981714	0.276605
3.878	0.0471327	0.276605
3.879	0.144188	0.276605
3.88	-0.0989703	0.276605
3.881	-0.0767068	0.276605
3.882	0.0568087	0.276605
3.883	-0.00666428	0.276605
3.884	0.0621608	0.276605
3.885	0.0823817	0.276605
3.886	-0.0397426	0.276605
3.887	0.0130949	0.276605
3.888	0.119181	0.276605
3.889	-0.124139	0.276605
3.89	-0.505044	0.276605
3.891	-0.177285	0.276605
3.892	0.468118	0.276605
3.893	0.54685	0.276605
3.894	0.24212	0.276605
3.895	-0.183761	0.276605
3.896	-0.46969	0.276605
3.897	-0.511115	0.276605
3.898	0.0111029	0.276605
3.899	0.40406	0.276605
3.9	0.300325	0.276605
3.901	0.0447997	0.276605
3.902	-0.100762	0.276605
3.903	-0.144574	0.276605
3.904	0.0258899	0.276605
3.905	0.129032	0.276605
3.906	-0.122269	0.276605
3.907	-0.105817	0.276605
3.908	-0.000468222	0.276605
3.909	0.0329811	0.276605
3.91	0.0738522	0.276605
3.911	0.184915	0.276605
3.912	-0.0415661	0.276605
3.913	-0.289757	0.276605
3.914	-0.146088	0.276605
3.915	0.219305	0.276605
3.916	0.294219	0.276605
3.917	0.0326079	0.276605
3.918	-0.151438	0.276605
3.919	-0.194287	0.276605
3.92	-0.0788921	0.276605
3.921	0.0879514	0.276978
3.922	0.142184	0.276605
3.923	-0.0296292	0.276978
3.924	-0.0817876	0.276605
3.925	-0.00287059	0.276605
3.926	0.0367097	0.276605
3.927	0.0954691	0.276605
3.928	0.083536	0.276605
3.929	-0.0170535	0.276605
3.93	-0.147483	0.276605
3.931	-0.120514	0.276978
3.932	-0.105064	0.276605
3.933	0.0865172	0.276605
3.934	0.260442	0.276605
3.935	-0.0369121	0.276605
3.936	-0.0994628	0.276605
3.937	0.0433761	0.276605
3.938	0.157265	0.276605
3.939	-0.029232	0.276605
3.94	-0.263975	0.276605
3.941	-0.119959	0.276605
3.942	0.194235	0.276605
3.943	0.0398412	0.276605
3.944	-0.0375214	0.276605
3.945	0.00265327	0.276605
3.946	-0.0026352	0.276605
3.947	0.0360718	0.276605
3.948	0.155711	0.276605
3.949	0.0451671	0.276605
3.95	-0.136175	0.276605
3.951	-0.198074	0.276605
3.952	-0.150324	0.276605
3.953	-0.0682313	0.276605
3.954	0.205828	0.276605
3.955	0.463458	0.276605
3.956	0.0286545	0.276605
3.957	-0.278306	0.276605
3.958	-0.169423	0.276605
3.959	-0.02289	0.276605
3.96	0.00203202	0.276605
3.961	0.0221173	0.276605
3.962	0.0464024	0.276605
3.963	-0.0084624	0.276978
3.964	0.0717067	0.276605
3.965	0.0924873	0.276605
3.966	0.0903655	0.276605
3.967	-0.141247	0.276978
3.968	-0.264079	0.276605
3.969	-0.0685124	0.276978
3.97	0.131409	0.276605
3.971	0.301173	0.276605
3.972	0.0848316	0.276978
3.973	-0.216824	0.276978
3.974	-0.118338	0.276978
3.975	0.0287891	0.276978
3.976	0.0839882	0.276978
3.977	-0.00463226	0.276978
3.978	-0.0806678	0.276978
3.979	-0.0648967	0.276978
3.98	-0.0208141	0.276978
3.981	0.213259	0.276978
3.982	0.182363	0.276978
3.983	-0.0563982	0.276978
3.984	-0.203815	0.276978
3.985	-0.225415	0.276978
3.986	-0.00803676	0.276978
3.987	0.185806	0.276978
3.988	0.196328	0.276978
3.989	0.12564	0.276978
3.99	-0.218045	0.276978
3.991	-0.129279	0.276978
3.992	0.036282	0.276978
3.993	-0.0272201	0.276978
3.994	0.077791	0.276978
3.995	0.0335092	0.276978
3.996	-0.0689222	0.276978
3.997	-0.0468602	0.276978
3.998	0.122539	0.276978
3.999	0.0865855	0.276978
4	-0.00189639	0.276978
4.001	-0.0517726	0.276978
4.002	-0.169367	0.276978
4.003	-0.138237	0.276978
4.004	0.0839629	0.276978
4.005	0.263742	0.276978
4.006	0.0661232	0.276978
4.007	-0.130375	0.276978
4.008	-0.0682014	0.276978
4.009	0.0531088	0.276978
4.01	0.0338568	0.276978
4.011	-0.0509252	0.276978
4.012	-0.11741	0.276978
4.013	-0.0192437	0.276978
4.014	0.00809179	0.276978
4.015	0.112305	0.276978
4.016	0.149775	0.276978
4.017	0.0323916	0.276978
4.018	-0.120239	0.276978
4.019	-0.159498	0.276978
4.02	-0.0212566	0.276605
4.021	0.138882	0.276978
4.022	0.137853	0.276978
4.023	-0.112903	0.276978
4.024	-0.18136	0.276978
4.025	-0.0499218	0.276978
4.026	0.0646877	0.276978
4.027	0.146036	0.276978
4.028	0.111072	0.276978
4.029	0.0579531	0.276978
4.03	-0.0234338	0.276978
4.031	-0.12238	0.276978
4.032	-0.149738	0.276978
4.033	-0.0743427	0.276978
4.034	-0.0763485	0.276978
4.035	0.0807588	0.276978
4.036	0.153048	0.276978
4.037	0.147967	0.276978
4.038	0.14823	0.276978
4.039	-0.100915	0.276978
4.04	-0.185808	0.276978
4.041	-0.103811	0.276978
4.042	-0.0051444	0.276978
4.043	-0.00839185	0.276978
4.044	0.0153597	0.276978
4.045	0.0364002	0.276978
4.046	0.0747279	0.276978
4.047	0.0984535	0.276978
4.048	0.0113059	0.276978
4.049	-0.0608911	0.276978
4.05	-0.0159942	0.276978
4.051	-0.00157673	0.276978
4.052	-0.106368	0.276978
4.053	-0.0473326	0.276978
4.054	-0.100698	0.276978
4.055	0.160389	0.276978
4.056	0.33937	0.276978
4.057	-0.092784	0.276978
4.058	-0.238296	0.276978
4.059	-0.030664	0.276978
4.06	0.024573	0.276978
4.061	0.0294805	0.276978
4.062	0.0738329	0.276978
4.063	-0.0483036	0.276978
4.064	-0.0101699	0.276978
4.065	0.0225216	0.276978
4.066	0.0553468	0.276978
4.067	0.0181881	0.276978
4.068	-0.099263	0.276978
4.069	-0.13829	0.276978
4.07	0.0260822	0.276978
4.071	0.213957	0.276978
4.072	0.0957917	0.276978
4.073	-0.112745	0.276978
4.074	-0.127194	0.276978
4.075	-0.0253464	0.276978
4.076	0.0728344	0.276978
4.077	0.0799808	0.276978
4.078	0.0777245	0.276978
4.079	-0.132431	0.276978
4.08	-0.258837	0.276978
4.081	0.0266228	0.276978
4.082	0.270447	0.276978
4.083	0.157045	0.276978
4.084	0.027096	0.276978
4.085	-0.166748	0.276978
4.086	-0.267073	0.276978
4.087	0.0433823	0.276978
4.088	0.20603	0.276978
4.089	0.0405675	0.276978
4.09	-0.0821101	0.276978
4.091	-0.123558	0.276978
4.092	-0.00410628	0.276978
4.093	0.100806	0.276978
4.094	0.105014	0.276978
4.095	0.107952	0.276978
4.096	-0.108372	0.276978
4.097	-0.204844	0.276978
4.098	0.0181655	0.276978
4.099	0.0752926	0.276978
4.1	0.0161493	0.276978
4.101	-0.0310362	0.276978
4.102	-0.0172555	0.276978
4.103	0.00670245	0.276978
4.104	0.0993384	0.276978
4.105	0.159486	0.276978
4.106	-0.0958794	0.276978
4.107	-0.19837	0.276978
4.108	-0.0775153	0.276978
4.109	0.0497231	0.276978
4.11	0.120239	0.276978
4.111	0.0951951	0.276978
4.112	-0.0185883	0.276605
4.113	-0.159053	0.276978
4.114	-0.00675256	0.276978
4.115	0.140313	0.276978
4.116	0.0860765	0.276978
4.117	-0.0607475	0.276978
4.118	-0.180893	0.276605
4.119	-0.102288	0.276978
4.12	0.0549907	0.276978
4.121	0.149935	0.276978
4.122	0.202404	0.276978
4.123	0.0303772	0.276978
4.124	-0.175576	0.276605
4.125	-0.166109	0.276605
4.126	-0.0742323	0.276605
4.127	0.0660206	0.276605
4.128	0.122883	0.276978
4.129	0.0307193	0.276605
4.13	-0.0756445	0.276605
4.131	0.0748269	0.276605
4.132	0.0524056	0.276605
4.133	-0.0583731	0.276605
4.134	-0.00094998	0.276605
4.135	-0.149587	0.276605
4.136	-0.0818905	0.276978
4.137	0.24489	0.276978
4.138	0.184498	0.276605
4.139	-0.193622	0.276978
4.14	-0.20285	0.276978
4.141	0.0157868	0.276978
4.142	0.12199	0.276978
4.143	0.112041	0.276605
4.144	0.0697182	0.276978
4.145	-0.0595742	0.276605
4.146	-0.212086	0.276978
4.147	-0.140894	0.276605
4.148	0.230073	0.276605
4.149	0.203795	0.276605
4.15	-0.0197174	0.276978
4.151	-0.150893	0.276978
4.152	-0.07968	0.276605
4.153	-0.0707064	0.276605
4.154	0.0678744	0.276978
4.155	0.180905	0.276978
4.156	-0.0141984	0.276978
4.157	-0.142646	0.276978
4.158	-0.0215069	0.276978
4.159	0.142518	0.276978
4.16	0.0628883	0.276978
4.161	-0.052901	0.276978
4.162	-0.0848065	0.276978
4.163	-0.163142	0.276978
4.164	-0.0371414	0.276978
4.165	0.224666	0.276978
4.166	0.184202	0.276978
4.167	-0.0804935	0.276978
4.168	-0.190726	0.276978
4.169	-0.086694	0.276978
4.17	0.0896359	0.276978
4.171	0.226125	0.276978
4.172	0.105325	0.276978
4.173	-0.193072	0.276978
4.174	-0.173046	0.276978
4.175	-0.150321	0.276978
4.176	-0.102561	0.276978
4.177	0.327046	0.276978
4.178	0.333998	0.276978
4.179	-0.0259455	0.276978
4.18	-0.254026	0.276978
4.181	-0.0500779	0.276978
4.182	-0.00463469	0.276978
4.183	-0.0384604	0.276978
4.184	-0.0457196	0.276978
4.185	-0.0199938	0.276978
4.186	0.0498452	0.276978
4.187	0.110713	0.276978
4.188	0.159227	0.276978
4.189	-0.0136036	0.276978
4.19	-0.175454	0.276978
4.191	-0.150975	0.276978
4.192	0.0118841	0.276978
4.193	0.161349	0.276978
4.194	0.130297	0.276978
4.195	-0.0927271	0.276978
4.196	-0.15601	0.276978
4.197	-0.0539826	0.276978
4.198	0.0627712	0.276978
4.199	0.108219	0.276978
4.2	0.0856444	0.276978
4.201	0.014037	0.276978
4.202	-0.0934865	0.276978
4.203	-0.112376	0.276978
4.204	0.0674748	0.276978
4.205	0.0830168	0.276978
4.206	-0.146533	0.276978
4.207	-0.111906	0.276978
4.208	0.0804996	0.276978
4.209	0.240584	0.276978
4.21	0.106925	0.276978
4.211	-0.0732063	0.276978
4.212	-0.187159	0.276978
4.213	-0.255174	0.276978
4.214	0.0208896	0.276978
4.215	0.280927	0.276605
4.216	0.226122	0.276978
4.217	-0.024151	0.276978
4.218	-0.192187	0.276978
4.219	-0.30048	0.276978
4.22	-0.0210449	0.276978
4.221	0.416313	0.276978
4.222	0.173507	0.276978
4.223	-0.236826	0.276978
4.224	-0.197355	0.276978
4.225	0.00352705	0.276978
4.226	0.0947053	0.276978
4.227	0.134422	0.276978
4.228	0.00590606	0.276978
4.229	-0.103202	0.276978
4.23	-0.128992	0.276605
4.231	-0.00504692	0.276978
4.232	0.17414	0.276978
4.233	0.203974	0.276605
4.234	-0.083526	0.276978
4.235	-0.264945	0.276978
4.236	-0.116356	0.276605
4.237	0.0702475	0.276605
4.238	0.233617	0.276605
4.239	0.0672672	0.276978
4.24	-0.063218	0.276978
4.241	-0.0418299	0.276978
4.242	-0.107761	0.276978
4.243	-0.0389628	0.276978
4.244	0.0690213	0.276978
4.245	0.111133	0.276978
4.246	-0.0465882	0.276978
4.247	-0.124375	0.276978
4.248	0.0949691	0.276978
4.249	0.0979085	0.276978
4.25	-0.0434133	0.276978
4.251	-0.0478848	0.276978
4.252	-0.0978541	0.276978
4.253	-0.0538058	0.276978
4.254	0.114279	0.276605
4.255	0.183952	0.276978
4.256	-0.0419827	0.276605
4.257	-0.130126	0.276978
4.258	-0.0434898	0.276605
4.259	0.0180813	0.276978
4.26	0.0626407	0.276605
4.261	0.0489523	0.276605
4.262	-0.0295426	0.276978
4.263	-0.157959	0.276605
4.264	-0.0367481	0.276605
4.265	0.123571	0.276605
4.266	0.139257	0.276605
4.267	0.0479237	0.276605
4.268	-0.0813775	0.276605
4.269	-0.100368	0.276605
4.27	-0.0548652	0.276605
4.271	0.0723048	0.276605
4.272	0.0718963	0.276605
4.273	-0.101078	0.276978
4.274	-0.148699	0.276605
4.275	0.0506205	0.276605
4.276	0.176711	0.276605
4.277	0.157053	0.276605
4.278	0.0135776	0.276605
4.279	-0.161779	0.276978
4.28	-0.184047	0.276605
4.281	0.0150598	0.276605
4.282	0.125683	0.276605
4.283	-0.000802578	0.276605
4.284	-0.162712	0.276605
4.285	-0.00327779	0.276978
4.286	0.195443	0.276978
4.287	0.148053	0.276978
4.288	0.0733935	0.276978
4.289	-0.137833	0.276978
4.29	-0.251598	0.276978
4.291	-0.0986694	0.276978
4.292	0.0177442	0.276978
4.293	0.105107	0.276978
4.294	0.262133	0.276978
4.295	0.057399	0.276978
4.296	-0.123734	0.276978
4.297	0.00541859	0.276978
4.298	-0.137544	0.276978
4.299	-0.303792	0.276978
4.3	0.242535	0.276978
4.301	0.227632	0.276978
4.302	-0.0728792	0.276978
4.303	-0.0702173	0.276605
4.304	0.0538144	0.276978
4.305	0.153103	0.276605
4.306	-0.0680084	0.276978
4.307	-0.219779	0.276978
4.308	-0.132509	0.276978
4.309	0.0771098	0.276605
4.31	0.175631	0.276605
4.311	0.163928	0.276605
4.312	0.00774521	0.276605
4.313	-0.178934	0.276605
4.314	-0.148205	0.276605
4.315	0.0423251	0.276605
4.316	0.123817	0.276605
4.317	0.0502037	0.276605
4.318	-0.0745756	0.276605
4.319	-0.0994389	0.276605
4.32	0.0201694	0.276605
4.321	0.173838	0.276605
4.322	0.162292	0.276605
4.323	-0.178051	0.276605
4.324	-0.311082	0.276605
4.325	-0.0465097	0.276978
4.326	0.185618	0.276605
4.327	0.285529	0.276605
4.328	0.078716	0.276605
4.329	-0.240529	0.276605
4.33	-0.210913	0.276605
4.331	0.131912	0.276605
4.332	0.0998029	0.276978
4.333	-0.0540033	0.276605
4.334	-0.0760732	0.276605
4.335	0.0101786	0.276605
4.336	0.0299937	0.276605
4.337	0.0630794	0.276605
4.338	0.154374	0.276605
4.339	-0.035049	0.276605
4.34	-0.207695	0.276605
4.341	-0.134926	0.276605
4.342	0.108516	0.276605
4.343	0.107424	0.276605
4.344	0.0722433	0.276605
4.345	-0.0275822	0.276605
4.346	-0.142034	0.276605
4.347	-0.0779063	0.276605
4.348	0.154709	0.276605
4.349	0.197294	0.276605
4.35	-0.0105211	0.276605
4.351	-0.17844	0.276605
4.352	-0.227025	0.276605
4.353	-0.0563562	0.276605
4.354	0.269514	0.276605
4.355	0.265394	0.276605
4.356	-0.114158	0.276605
4.357	-0.248073	0.276605
4.358	-0.0356018	0.276605
4.359	0.134606	0.276605
4.36	0.0826785	0.276605
4.361	-0.0062886	0.276605
4.362	-0.127494	0.276605
4.363	-0.0752439	0.276605
4.364	0.0910439	0.276605
4.365	0.166479	0.276605
4.366	-0.00928927	0.276605
4.367	-0.137661	0.276605
4.368	-0.0995642	0.276605
4.369	-0.0177377	0.276605
4.37	0.0618397	0.276605
4.371	0.210493	0.276605
4.372	0.103833	0.276605
4.373	-0.242335	0.276605
4.374	-0.235996	0.276605
4.375	0.119044	0.276605
4.376	0.176221	0.276978
4.377	0.114024	0.276605
4.378	-0.0368425	0.276605
4.379	-0.159005	0.276978
4.38	-0.131153	0.276605
4.381	-0.0283221	0.276978
4.382	0.114667	0.276605
4.383	0.189174	0.276978
4.384	0.0128393	0.276978
4.385	-0.0536915	0.276978
4.386	-0.0944925	0.276605
4.387	-0.0568053	0.276605
4.388	0.118074	0.276978
4.389	-0.0118245	0.276978
4.39	-0.116276	0.276605
4.391	-0.0350946	0.276605
4.392	0.114528	0.276978
4.393	0.0556007	0.276605
4.394	-0.0105172	0.276978
4.395	0.00129382	0.276605
4.396	-0.071832	0.276978
4.397	-1.6463e-05	0.276978
4.398	0.0954322	0.276978
4.399	-0.0224217	0.276978
4.4	-0.0313159	0.276978
4.401	-0.0615266	0.276978
4.402	-0.155436	0.276605
4.403	0.098259	0.276605
4.404	0.216748	0.276605
4.405	0.0893934	0.276605
4.406	-0.103922	0.276605
4.407	-0.145587	0.276605
4.408	-0.0336954	0.276605
4.409	0.025836	0.276978
4.41	0.0285238	0.276978
4.411	0.0623841	0.276605
4.412	0.00956225	0.276605
4.413	-0.147612	0.276978
4.414	0.0286031	0.276605
4.415	0.199504	0.276978
4.416	0.022012	0.276605
4.417	-0.149041	0.276605
4.418	-0.080088	0.276978
4.419	-0.032917	0.276605
4.42	0.0149102	0.276605
4.421	0.17551	0.276605
4.422	0.100353	0.276605
4.423	-0.0939279	0.276605
4.424	-0.139451	0.276605
4.425	-0.0712749	0.276605
4.426	-0.00272739	0.276978
4.427	0.169939	0.276978
4.428	0.0956765	0.276605
4.429	-0.0436815	0.276605
4.43	-0.137421	0.276978
4.431	-0.0669239	0.276605
4.432	0.12545	0.276605
4.433	0.0838074	0.276605
4.434	-0.0750912	0.276605
4.435	-0.134781	0.276978
4.436	0.012972	0.276978
4.437	0.127111	0.276978
4.438	0.163387	0.276605
4.439	-0.0491884	0.276978
4.44	-0.215352	0.276978
4.441	-0.13617	0.276605
4.442	0.0825269	0.276978
4.443	0.194205	0.276605
4.444	0.130055	0.276978
4.445	-0.0761572	0.276978
4.446	-0.199749	0.276605
4.447	-0.0684443	0.276605
4.448	0.118968	0.276605
4.449	0.0957048	0.276605
4.45	-0.0287829	0.276605
4.451	-0.0772747	0.276605
4.452	-0.0309811	0.276605
4.453	0.0571211	0.276605
4.454	0.0962851	0.276605
4.455	0.0608427	0.276605
4.456	-0.0979601	0.276605
4.457	-0.149531	0.276605
4.458	-0.0255462	0.276605
4.459	0.0582886	0.276605
4.46	0.0717071	0.276605
4.461	0.0622427	0.276605
4.462	0.0726401	0.276605
4.463	-0.137562	0.276605
4.464	-0.121533	0.276605
4.465	0.124144	0.276605
4.466	0.100041	0.276605
4.467	-0.0452762	0.276605
4.468	-0.0871938	0.276605
4.469	-0.109402	0.276605
4.47	0.0250269	0.276605
4.471	0.234515	0.276605
4.472	0.0793168	0.276605
4.473	-0.202002	0.276605
4.474	-0.192447	0.276605
4.475	0.0433577	0.276605
4.476	0.211825	0.276605
4.477	0.194721	0.276605
4.478	0.0642419	0.276605
4.479	-0.335226	0.276605
4.48	-0.406893	0.276605
4.481	0.0368982	0.276605
4.482	0.400065	0.276605
4.483	0.276491	0.276605
4.484	0.00639803	0.276605
4.485	-0.185728	0.276605
4.486	-0.188398	0.276605
4.487	-0.0579391	0.276605
4.488	0.096916	0.276605
4.489	0.033696	0.276605
4.49	-0.0802605	0.276605
4.491	-0.0362693	0.276605
4.492	0.104345	0.276605
4.493	0.173852	0.276605
4.494	0.0999753	0.276605
4.495	-0.105436	0.276605
4.496	-0.274537	0.276605
4.497	-0.104221	0.276605
4.498	0.107625	0.276605
4.499	0.136805	0.276605
4.5	0.0911636	0.276605
4.501	-0.0443127	0.276605
4.502	-0.103241	0.276605
4.503	-0.00348167	0.276605
4.504	0.10972	0.276605
4.505	0.0942359	0.276605
4.506	-0.136661	0.276605
4.507	-0.172009	0.276605
4.508	0.000185399	0.276605
4.509	0.132842	0.276605
4.51	0.155568	0.276605
4.511	0.0127432	0.276605
4.512	-0.0962692	0.276605
4.513	-0.240959	0.276605
4.514	-0.043094	0.276605
4.515	0.291293	0.276605
4.516	0.110335	0.276605
4.517	-0.0398847	0.276605
4.518	-0.108152	0.276605
4.519	-0.127131	0.276605
4.52	-0.0488865	0.276605
4.521	0.16191	0.276605
4.522	0.0894199	0.276605
4.523	-0.104487	0.276605
4.524	-0.0685854	0.276605
4.525	0.0548206	0.276605
4.526	0.0938087	0.276605
4.527	0.0451495	0.276605
4.528	-0.072541	0.276605
4.529	-0.169255	0.276605
4.53	-0.11838	0.276605
4.531	0.211093	0.276605
4.532	0.193933	0.276605
4.533	-0.0544075	0.276605
4.534	-0.0528446	0.276605
4.535	-0.111363	0.276605
4.536	-0.0641978	0.276605
4.537	0.111093	0.276605
4.538	0.0543629	0.276605
4.539	-0.0466559	0.276605
4.54	-0.0465311	0.276605
4.541	-0.0974585	0.276605
4.542	0.136841	0.276605
4.543	0.203718	0.276605
4.544	0.00558691	0.276605
4.545	-0.127457	0.276605
4.546	-0.250014	0.276605
4.547	-0.126516	0.276605
4.548	0.155986	0.276605
4.549	0.196366	0.276605
4.55	0.167732	0.276978
4.551	-0.0158978	0.276605
4.552	-0.159365	0.276605
4.553	-0.10624	0.276605
4.554	-0.00692173	0.276605
4.555	0.0209953	0.276605
4.556	-0.0632979	0.276605
4.557	0.0129522	0.276605
4.558	0.125995	0.276605
4.559	0.0866176	0.276605
4.56	0.0357886	0.276605
4.561	-0.0227669	0.276605
4.562	-0.163987	0.276605
4.563	-0.189608	0.276605
4.564	0.0678702	0.276978
4.565	0.213911	0.276605
4.566	0.177674	0.276605
4.567	-0.144224	0.276605
4.568	-0.2272	0.276605
4.569	-0.0132622	0.276605
4.57	0.109717	0.276978
4.571	0.152027	0.276978
4.572	-0.00340316	0.276605
4.573	-0.137292	0.276605
4.574	0.0270916	0.276605
4.575	0.0209952	0.276605
4.576	-0.0367213	0.276605
4.577	0.00545649	0.276605
4.578	0.0208321	0.276605
4.579	-0.0714711	0.276605
4.58	-0.0751333	0.276605
4.581	0.161018	0.276605
4.582	0.116229	0.276605
4.583	-0.0362975	0.276605
4.584	-0.0863499	0.276605
4.585	-0.0909299	0.276605
4.586	-0.031709	0.276605
4.587	0.0443697	0.276605
4.588	0.1823	0.276605
4.589	-0.000945857	0.276605
4.59	-0.234693	0.276605
4.591	-0.0449085	0.276605
4.592	0.198818	0.276605
4.593	0.139337	0.276605
4.594	-0.0534159	0.276605
4.595	-0.168891	0.276605
4.596	-0.112602	0.276605
4.597	0.0152826	0.276605
4.598	0.138825	0.276978
4.599	0.120233	0.276605
4.6	0.021236	0.276605
4.601	-0.100614	0.276605
4.602	-0.137923	0.276605
4.603	0.0460948	0.276605
4.604	0.133851	0.276605
4.605	0.00311716	0.276605
4.606	-0.131814	0.276605
4.607	-0.0955276	0.276605
4.608	0.0146756	0.276605
4.609	0.169408	0.276605
4.61	0.172966	0.276605
4.611	-0.0277602	0.276605
4.612	-0.190641	0.276605
4.613	-0.149225	0.276605
4.614	0.0479918	0.276605
4.615	0.125994	0.276605
4.616	0.030359	0.276605
4.617	-0.083247	0.276605
4.618	-0.0716178	0.276605
4.619	0.051339	0.276605
4.62	0.126493	0.276605
4.621	0.171813	0.276605
4.622	-0.0242307	0.276605
4.623	-0.233613	0.276605
4.624	-0.27155	0.276605
4.625	-0.0948071	0.276605
4.626	0.284835	0.276605
4.627	0.357909	0.276605
4.628	0.0527432	0.276605
4.629	-0.21664	0.276605
4.63	-0.222445	0.276605
4.631	-0.0351497	0.276605
4.632	0.0522272	0.276605
4.633	0.136649	0.276605
4.634	-0.00514547	0.276605
4.635	-0.050308	0.276605
4.636	0.128694	0.276605
4.637	-0.0225327	0.276605
4.638	-0.0178016	0.276605
4.639	-0.107539	0.276605
4.64	-0.104394	0.276605
4.641	-0.0334689	0.276605
4.642	0.129811	0.276605
4.643	0.186398	0.276605
4.644	0.0894899	0.276605
4.645	-0.0613699	0.276605
4.646	-0.189262	0.276605
4.647	-0.105183	0.276605
4.648	-0.0149215	0.276605
4.649	0.0385508	0.276605
4.65	0.0679202	0.276605
4.651	0.141709	0.276605
4.652	0.0504599	0.276605
4.653	-0.0969871	0.276605
4.654	-0.0540067	0.276605
4.655	-0.0114481	0.276605
4.656	-0.0884197	0.276605
4.657	0.0455498	0.276605
4.658	0.104903	0.276605
4.659	0.0112404	0.276605
4.66	-0.0324736	0.276605
4.661	-0.0350181	0.276605
4.662	-0.0854528	0.276605
4.663	-0.0298748	0.276605
4.664	0.137804	0.276605
4.665	0.180234	0.276605
4.666	-0.0322288	0.276605
4.667	-0.302483	0.276605
4.668	-0.0443693	0.276605
4.669	0.172335	0.276605
4.67	0.0926947	0.276605
4.671	0.0165546	0.276605
4.672	-0.081127	0.276605
4.673	-0.0894896	0.276605
4.674	-0.00704073	0.276605
